RMS,MAV,VAR,ZC,SSC,Label
0.0952307415679524,0.075882945438253,0.0090688941395821,50.0,62.0,0.0
0.0950286765771914,0.0757667963401529,0.0090304493720124,50.0,61.0,0.0
0.0953970268309763,0.0764265687191434,0.00910059272819,49.0,61.0,0.0
0.0951064294639018,0.0758756584205322,0.0090452329253721,49.0,62.0,0.0
0.0951468345031645,0.0758284825670287,0.0090529201159725,50.0,62.0,0.0
0.0952400610916284,0.0757373568235887,0.0090706692367371,50.0,62.0,0.0
0.0952346539188593,0.0758221800585155,0.0090696393070449,49.0,62.0,0.0
0.0951800407985724,0.0756317017425737,0.0090592401664179,50.0,61.0,0.0
0.0961258743170617,0.0767332673630217,0.0092401837132195,49.0,61.0,0.0
0.09732598107936,0.0778399414868277,0.0094723465930599,49.0,61.0,0.0
0.0969359903787586,0.0776895845407227,0.0093965862307107,49.0,62.0,0.0
0.0958413889805043,0.0766107982930109,0.0091855718417123,51.0,62.0,0.0
0.0950149184475705,0.0758252353047379,0.0090278347275984,50.0,61.0,0.0
0.095079673183957,0.0761042898593609,0.009040144252768,49.0,61.0,0.0
0.0948505911043967,0.0756469370783529,0.0089966346328534,50.0,60.0,0.0
0.0951569036411686,0.0757710875091129,0.0090548363105746,52.0,62.0,0.0
0.09538448587212,0.0760608602029441,0.0090982001450886,49.0,62.0,0.0
0.0954266689169691,0.0762819749977808,0.0091062491405888,49.0,62.0,0.0
0.0950011968836065,0.075490600083123,0.0090252274093177,50.0,59.0,0.0
0.095001937685184,0.0755336076714011,0.0090253681639395,51.0,61.0,0.0
0.0957640172585618,0.0763780541428907,0.0091707470014981,51.0,61.0,0.0
0.0955289277975963,0.076348341384763,0.0091257760461583,49.0,60.0,0.0
0.0951817910566942,0.0758336783045898,0.0090595733487602,50.0,62.0,0.0
0.0947045792046723,0.075309315154124,0.008968957322334,51.0,62.0,0.0
0.0944017914262963,0.0749503506352962,0.0089116982244939,50.0,60.0,0.0
0.09440832623425,0.074783021585109,0.0089129320623525,50.0,59.0,0.0
0.0950784135803974,0.0755606945141004,0.0090399047289651,49.0,59.0,0.0
0.0955671877788764,0.0762511401467887,0.009133087379963,49.0,59.0,0.0
0.0954149084916474,0.0761543716333407,0.0091040047624694,49.0,60.0,0.0
0.0951127188482975,0.0758587161266542,0.0090464292867153,50.0,60.0,0.0
0.094865005043227,0.0757108365641476,0.0089993691818514,49.0,59.0,0.0
0.0951538683138375,0.0762812526065637,0.0090542586550871,49.0,59.0,0.0
0.0948128701442752,0.0756278615231538,0.0089894803449951,49.0,60.0,0.0
0.0948736643413287,0.0756417583268982,0.0090010121855511,50.0,60.0,0.0
0.0949640841765179,0.0755223811171736,0.0090181772834847,50.0,60.0,0.0
0.0949429589097163,0.0755707394953704,0.009014165446532,49.0,60.0,0.0
0.0949103218492868,0.075450954811573,0.0090079691935352,50.0,59.0,0.0
0.0958048194812576,0.076464671449828,0.0091785634358363,49.0,59.0,0.0
0.0969494905353697,0.0775244937430128,0.0093992037150677,49.0,59.0,0.0
0.0965112263926568,0.0773942686513538,0.0093144168198146,49.0,60.0,0.0
0.095442398208073,0.0763220958515282,0.0091092513757083,49.0,60.0,0.0
0.0945999920257003,0.0756102349518846,0.0089491584912625,50.0,59.0,0.0
0.0946229001578915,0.0758385300563455,0.0089534932342903,49.0,59.0,0.0
0.094376669457075,0.0754213786758775,0.00890695573781,50.0,58.0,0.0
0.0947284914464553,0.075477942892345,0.0089734870917211,50.0,60.0,0.0
0.0949933790483245,0.0757920939279527,0.0090237420630186,51.0,60.0,0.0
0.0950455688767184,0.0760402598398261,0.009033660163099,51.0,60.0,0.0
0.0946209443862681,0.0753324881075923,0.0089531231165492,50.0,57.0,0.0
0.094589388398136,0.0751939687770354,0.0089471523975334,49.0,59.0,0.0
0.0953491408952998,0.0760423640598265,0.0090914586694717,51.0,59.0,0.0
0.0951449919009322,0.0761073603054318,0.0090525694838284,49.0,58.0,0.0
0.0948214863873475,0.0756676138678959,0.0089911142807059,50.0,60.0,0.0
0.0943632594637278,0.0751636935712504,0.0089044247366188,51.0,60.0,0.0
0.0940548463463403,0.074824682359678,0.0088463141212336,50.0,58.0,0.0
0.0940828232992004,0.074658914772698,0.0088515776399485,50.0,57.0,0.0
0.0947791970932927,0.0754535996503553,0.0089830962016492,49.0,57.0,0.0
0.0952990144964248,0.0761744738564066,0.0090819021639897,49.0,57.0,0.0
0.0951620814424427,0.0761115868903476,0.0090558217444581,49.0,58.0,0.0
0.0948699320318413,0.0757542448888959,0.0090003040037261,50.0,57.0,0.0
0.0946398767097862,0.075749124585524,0.0089567062636435,49.0,57.0,0.0
0.0949137697152192,0.0762481131659437,0.0090086236815536,49.0,57.0,0.0
0.0944311790865524,0.0754047178314652,0.0089172475836765,49.0,58.0,0.0
0.0944712864795739,0.0753119537174528,0.0089248239691057,50.0,58.0,0.0
0.094542881554223,0.0751616180032592,0.0089383564525758,50.0,58.0,0.0
0.0944840665999491,0.0752319347209015,0.0089272388412636,49.0,58.0,0.0
0.0944347451261408,0.0750725180468078,0.0089179210870391,50.0,57.0,0.0
0.0953562950281361,0.0760621228955477,0.0090928230014929,49.0,57.0,0.0
0.0966020932168068,0.0771635091490917,0.0093319644138686,49.0,57.0,0.0
0.0961911263042188,0.0769584140466737,0.0092527327796741,49.0,58.0,0.0
0.0951086561911395,0.0759227358320991,0.0090456564824843,51.0,58.0,0.0
0.0942420548083335,0.0750391272762644,0.0088815648944969,50.0,57.0,0.0
0.0942441084575718,0.0752543114424,0.0088819519789625,49.0,57.0,0.0
0.094041916471589,0.0748751274120589,0.0088438820536493,50.0,56.0,0.0
0.0944669009143274,0.0750684895731803,0.0089239953683573,52.0,58.0,0.0
0.0947853958158214,0.0754762205666851,0.0089842712599619,49.0,58.0,0.0
0.0948449949754203,0.0757198639763086,0.0089955730718875,49.0,58.0,0.0
0.0943711326196236,0.0749161063611651,0.0089059106719105,49.0,55.0,0.0
0.0943051272784565,0.0748476131672603,0.0088934570310058,51.0,57.0,0.0
0.0950196718046423,0.0756864112689092,0.0090287380298619,51.0,57.0,0.0
0.0947726692349518,0.075651097196609,0.0089818588339175,49.0,56.0,0.0
0.0944272867543343,0.0751831751816235,0.0089165124837852,50.0,58.0,0.0
0.0939299327928629,0.0746047760904981,0.0088228322744717,51.0,58.0,0.0
0.093637608545035,0.0742170778969271,0.0087680017340332,50.0,56.0,0.0
0.0936958935001832,0.0741287214485636,0.0087789204587976,50.0,55.0,0.0
0.0947207304001312,0.0751184402681829,0.0089720167675343,49.0,55.0,0.0
0.0955318783152617,0.0759952799202206,0.0091263397744419,49.0,56.0,0.0
0.0954781936386588,0.0760630180104228,0.0091160854605012,49.0,56.0,0.0
0.0952262106013647,0.0757483470140857,0.0090680311854954,50.0,56.0,0.0
0.0950808346211581,0.0756809043129374,0.009040365112256,50.0,55.0,0.0
0.0955278401900769,0.0763788686330747,0.0091255682513808,49.0,55.0,0.0
0.0953012660541241,0.0759039772704672,0.0090823313115189,49.0,56.0,0.0
0.0953751607487179,0.0759327705412818,0.0090964212878437,50.0,56.0,0.0
0.0954811528225139,0.0759214518290871,0.0091166505443162,50.0,56.0,0.0
0.0954795837040502,0.0759738777264911,0.0091163509042987,49.0,56.0,0.0
0.0954506758725484,0.0758402419047466,0.0091108315245262,50.0,55.0,0.0
0.0963784407385264,0.0768633949817915,0.0092888038391896,49.0,55.0,0.0
0.0975399131338482,0.0779140123184658,0.0095140346541586,49.0,55.0,0.0
0.0970599503563747,0.0776468475631101,0.0094206339631819,49.0,56.0,0.0
0.0959951760349907,0.0766194251159179,0.0092150738219888,52.0,56.0,0.0
0.0951840631040316,0.0757893882757187,0.0090600058689922,50.0,55.0,0.0
0.0952014952111041,0.0760187927405175,0.0090633246904298,49.0,55.0,0.0
0.0950011585117451,0.0756401444311154,0.0090252201185737,50.0,54.0,0.0
0.0954127492016991,0.0758072075681208,0.0091035927102263,50.0,55.0,0.0
0.0957280941677583,0.0762439776069345,0.0091638680129912,51.0,56.0,0.0
0.0957681939147702,0.0764243112122236,0.009171546965697,51.0,56.0,0.0
0.0953115826352595,0.0756854837517743,0.0090842977844379,50.0,53.0,0.0
0.0953139373236005,0.0756519862742452,0.0090847466481272,49.0,55.0,0.0
0.0961334663972231,0.076545995238784,0.009241643361546,51.0,55.0,0.0
0.0959308150097417,0.0765830708027793,0.0092027212684332,49.0,54.0,0.0
0.0956040045553256,0.0760895037246574,0.0091401256870147,50.0,56.0,0.0
0.0951459136332279,0.0755054562891825,0.0090527448811016,51.0,56.0,0.0
0.0948607740879445,0.0750934058715038,0.008998566460564,50.0,54.0,0.0
0.0948583164039283,0.0749217259857757,0.0089981001909877,50.0,53.0,0.0
0.0955435983498807,0.0757670824405855,0.0091285791856433,49.0,53.0,0.0
0.0961336747201027,0.0764869389684526,0.0092416834151905,49.0,53.0,0.0
0.0960285271822183,0.0764482043442207,0.009221478032786,49.0,54.0,0.0
0.0957854732919119,0.0761546108169121,0.0091748568937555,50.0,54.0,0.0
0.0955637517722688,0.0759730569594874,0.0091324306527918,50.0,53.0,0.0
0.0958021843360426,0.0764855020861861,0.0091780585235571,49.0,53.0,0.0
0.0955556215465674,0.0758875817800792,0.0091308768091508,49.0,54.0,0.0
0.095813665164587,0.07610837710302,0.0091802584322715,50.0,54.0,0.0
0.096017334295214,0.0762403169009613,0.0092193284851588,50.0,54.0,0.0
0.096022733220385,0.0763339168292572,0.0092203652951132,49.0,54.0,0.0
0.0959685684311021,0.0761699290701852,0.0092099661267151,50.0,53.0,0.0
0.0968839110554012,0.0772042526516089,0.0093864922213908,49.0,53.0,0.0
0.0981923187898086,0.0782936224523575,0.0096417314693194,49.0,53.0,0.0
0.0977665759172524,0.0780611523371785,0.0095583033665838,49.0,54.0,0.0
0.0966426777533689,0.0769616091979386,0.0093398071633415,49.0,54.0,0.0
0.0956809377226237,0.075906926279496,0.0091548418434806,50.0,53.0,0.0
0.0956055540001728,0.0760467184068841,0.0091404219556799,49.0,51.0,0.0
0.0954536829840234,0.0757499168714279,0.0091114055952144,50.0,52.0,0.0
0.0959572870466971,0.0760161120408529,0.0092078009373622,50.0,53.0,0.0
0.0963189263311408,0.0765359971352405,0.0092773355695837,49.0,52.0,0.0
0.0963833868738639,0.0767808202252051,0.0092897572652769,49.0,52.0,0.0
0.0959038858004545,0.0759680246919081,0.0091975553116266,49.0,51.0,0.0
0.0958524604921531,0.0759495068146723,0.0091876941823997,49.0,53.0,0.0
0.0966161700008035,0.0768014260840121,0.0093346843056241,51.0,53.0,0.0
0.0963890356393654,0.0768083170264399,0.0092908461914868,49.0,52.0,0.0
0.0960358669224068,0.076308479899693,0.0092228877355382,50.0,52.0,0.0
0.0955558166220357,0.0757233056557857,0.0091309140903041,51.0,54.0,0.0
0.0952830500862889,0.0753856348495208,0.0090788596337462,50.0,52.0,0.0
0.0952727525242565,0.0751896452819652,0.0090768973735482,50.0,51.0,0.0
0.0958375111477126,0.0759423879718251,0.0091848285429879,49.0,51.0,0.0
0.0963528327118315,0.0766558047080762,0.0092838683715941,49.0,51.0,0.0
0.0962320548492059,0.0766160413830041,0.0092606083805005,49.0,52.0,0.0
0.0959444245890255,0.0762991996520073,0.0092053326097192,50.0,52.0,0.0
0.0956568404109508,0.0760196237353775,0.0091502311174061,50.0,51.0,0.0
0.0957891408670341,0.076401028588064,0.0091755595080445,49.0,51.0,0.0
0.0954963723433382,0.0756891249612271,0.0091195571307374,50.0,52.0,0.0
0.0957607844031482,0.0758111287213885,0.0091701278295062,50.0,52.0,0.0
0.0960013558474161,0.0759644997409868,0.0092162603245422,50.0,52.0,0.0
0.0960110968571622,0.0760888001204799,0.0092181307197153,49.0,52.0,0.0
0.0959427536243718,0.0758710818662903,0.0092050119730269,50.0,51.0,0.0
0.0967808162323884,0.0769118072158529,0.0093665263906073,49.0,51.0,0.0
0.0979785511581055,0.077997331838238,0.0095997964870414,49.0,51.0,0.0
0.0975051645403252,0.0777023805896564,0.0095072571120359,49.0,52.0,0.0
0.0964374559934084,0.0766907571383636,0.0093001829184805,49.0,52.0,0.0
0.0955875799360568,0.0757992737696418,0.009136985438032,50.0,55.0,0.0
0.0955496184621735,0.0759850319312603,0.0091297295882669,49.0,53.0,0.0
0.0953759784295317,0.0756437454280592,0.0090965772613905,50.0,52.0,0.0
0.0958792381416575,0.0758105633255728,0.0091928283066246,50.0,53.0,0.0
0.0962904467089939,0.0764109987414946,0.0092718501274176,49.0,52.0,0.0
0.0963587622274705,0.0766482546165672,0.0092850110580101,49.0,54.0,0.0
0.0958886384873095,0.0759546342511808,0.0091946309909499,49.0,51.0,0.0
0.0957578758417742,0.0758412726995308,0.0091695707857286,49.0,53.0,0.0
0.0964372299666872,0.0766394990410352,0.0093001393236477,49.0,53.0,0.0
0.0961671485376306,0.0765679887825358,0.0092481204578587,49.0,52.0,0.0
0.0958447161266652,0.0761348080364828,0.009186209609401,50.0,52.0,0.0
0.0953844712069839,0.0755290648649689,0.0090981973474359,51.0,54.0,0.0
0.0951082569789821,0.0752019160322996,0.0090455805455801,50.0,52.0,0.0
0.0950903262556358,0.0749612179588269,0.0090421701474032,50.0,51.0,0.0
0.0956881032321636,0.0757133133325829,0.0091562131001692,49.0,51.0,0.0
0.0962518941823449,0.0764635589605602,0.0092644271336893,49.0,51.0,0.0
0.096127288975238,0.0764393650853026,0.0092404556857289,49.0,52.0,0.0
0.0958118348502518,0.0761089103389921,0.0091799076973719,50.0,52.0,0.0
0.0954886842245253,0.0757999546690884,0.0091180888149311,49.0,51.0,0.0
0.0956294450342875,0.0761963919803924,0.0091449907575658,49.0,51.0,0.0
0.0953126667947218,0.0754459866557859,0.0090845044515216,49.0,50.0,0.0
0.0955590727550115,0.07555329641337,0.0091315363857975,50.0,50.0,0.0
0.0957914592617066,0.0756350919562744,0.0091760036674871,50.0,50.0,0.0
0.0957931782516785,0.0757647682017317,0.0091763329995578,49.0,50.0,0.0
0.0957342122329167,0.0755691115469677,0.0091650393918571,50.0,49.0,0.0
0.0965759229866386,0.0765904774740665,0.0093269089007211,49.0,51.0,0.0
0.0977547513408889,0.0776581524272172,0.009555991409719,49.0,51.0,0.0
0.0972750918956957,0.0773975171116446,0.009462443503316,49.0,50.0,0.0
0.0962352946393082,0.0764636058859209,0.0092612319343144,50.0,50.0,0.0
0.0954218848353524,0.0756077325630873,0.0091053361055312,50.0,49.0,0.0
0.0954057740479735,0.07579898395608,0.0091022617216929,49.0,49.0,0.0
0.0952205662964786,0.0754639243703962,0.009066956245822,50.0,50.0,0.0
0.0957481795363183,0.0756624673881361,0.009167713884519,50.0,49.0,0.0
0.0961981563655836,0.0762941687694157,0.0092540852881372,49.0,50.0,0.0
0.0962755851937167,0.0765453709719518,0.0092689883043926,49.0,50.0,0.0
0.0957788279324923,0.0758260832546548,0.0091735838801219,49.0,49.0,0.0
0.0956436572435918,0.0756927967309198,0.0091477091709296,49.0,51.0,0.0
0.0963272516209868,0.0764835341656311,0.0092789394048529,49.0,51.0,0.0
0.0960795224852108,0.0764064892382427,0.0092312746409861,49.0,50.0,0.0
0.0957773840930818,0.0759786791245284,0.0091733073037137,50.0,50.0,0.0
0.0953433667794103,0.0753546216491832,0.0090903575888331,51.0,50.0,0.0
0.0950849426517326,0.0750280033673528,0.0090411463190832,50.0,50.0,0.0
0.0950602284014605,0.0748005595845854,0.0090364470237378,50.0,49.0,0.0
0.0956471379437306,0.0755624085141765,0.009148374996827,49.0,49.0,0.0
0.0962096071531858,0.0762872787080953,0.0092562885085703,49.0,49.0,0.0
0.0960737678105426,0.0762656766815077,0.009230168861314,49.0,50.0,0.0
0.0957590331005805,0.0758791561491467,0.009169792420358,50.0,50.0,0.0
0.0954128905102366,0.0754679977757937,0.0091036196755184,50.0,49.0,0.0
0.0955106009082191,0.0757929666593036,0.0091222748858491,49.0,49.0,0.0
0.0952558925411081,0.0751713294436405,0.0090736850638031,49.0,50.0,0.0
0.0955015061973547,0.0753556076885947,0.0091205376859633,50.0,50.0,0.0
0.0957468799739949,0.0755526700879005,0.0091674650247545,50.0,50.0,0.0
0.095766810045134,0.0757024420449365,0.0091712819062207,49.0,50.0,0.0
0.0956882513201716,0.075470831016002,0.0091562414407123,50.0,49.0,0.0
0.096506907652968,0.0764840352162232,0.0093135832247385,49.0,49.0,0.0
0.0975734174839994,0.0774945932341142,0.0095205717995068,49.0,49.0,0.0
0.0970639294371005,0.0771392100923713,0.0094214063977704,49.0,50.0,0.0
0.0960866357087656,0.0761372963009363,0.009232641561829,49.0,50.0,0.0
0.0953466841350365,0.0752819853753275,0.0090909901755464,50.0,51.0,0.0
0.095332387908817,0.0754461339152309,0.0090882641843971,49.0,49.0,0.0
0.0951566404213805,0.075146210935142,0.0090547862162839,50.0,50.0,0.0
0.0956911118514931,0.0753647917058596,0.0091567888873749,50.0,49.0,0.0
0.0961510848040871,0.0760703968187063,0.0092450311090027,49.0,50.0,0.0
0.0962023527366571,0.076265858356091,0.0092548926720682,49.0,50.0,0.0
0.0956770617152804,0.0754666010079702,0.0091541001384695,49.0,49.0,0.0
0.0955264833038562,0.0753219056736333,0.0091253090124019,49.0,51.0,0.0
0.0961819491576203,0.0760964242500023,0.009250967343759,49.0,51.0,0.0
0.0959334758921097,0.0760328903229647,0.0092032317967419,49.0,50.0,0.0
0.0956381265285952,0.075622274060642,0.0091466512458996,50.0,50.0,0.0
0.095200777031452,0.0749813501814864,0.0090631879473922,51.0,50.0,0.0
0.0949431906636537,0.0746582438353608,0.0090142094533949,50.0,50.0,0.0
0.0949379653706141,0.0744704593003752,0.0090132172687119,50.0,49.0,0.0
0.0957158603841167,0.075351187875839,0.0091615259290717,49.0,49.0,0.0
0.0963515461573929,0.0761411697358951,0.0092836204469202,49.0,49.0,0.0
0.0961878891676382,0.0760703955055609,0.0092521100225258,49.0,50.0,0.0
0.0958640710020433,0.0756985080064827,0.0091899201090848,50.0,50.0,0.0
0.0955723309760376,0.0753743916785718,0.0091340704481932,50.0,51.0,0.0
0.0958477931838994,0.0759110192638727,0.0091867994582235,49.0,49.0,0.0
0.095616867687435,0.0754149062635517,0.0091425853863564,49.0,50.0,0.0
0.0958751951928865,0.0756283335776246,0.009192053053274,50.0,50.0,0.0
0.0961018655964364,0.0758844417703281,0.0092355685711155,50.0,50.0,0.0
0.0961137272892872,0.0759808754377542,0.0092378485734394,49.0,50.0,0.0
0.0959956352943765,0.0756610999796245,0.0092151619955709,50.0,49.0,0.0
0.0966576912515465,0.0765774885917886,0.0093427092780793,49.0,49.0,0.0
0.0976986462416272,0.0776018436029906,0.0095450254774466,49.0,49.0,0.0
0.0971267567240466,0.0773005124367303,0.0094336068717321,49.0,50.0,0.0
0.0960935659070692,0.0764259837089295,0.0092339734087362,50.0,52.0,0.0
0.0952691280360686,0.0755416368912427,0.0090762067567528,50.0,53.0,0.0
0.0951888907505133,0.0756476482314236,0.0090609249223131,49.0,51.0,0.0
0.0950251401134641,0.0753665839189737,0.0090297772535834,50.0,52.0,0.0
0.0955490592972504,0.075581784527134,0.0091296227325894,50.0,51.0,0.0
0.0959905223715872,0.0762660256539947,0.0092141803851701,49.0,52.0,0.0
0.0960223173458179,0.0764203535376266,0.0092202854284609,49.0,52.0,0.0
0.0954802541985131,0.0756789794253042,0.0091164789418126,50.0,51.0,0.0
0.0953700794152955,0.0755174755690946,0.0090954520476797,49.0,53.0,0.0
0.0961297248103959,0.0763580403482229,0.0092409239921224,49.0,53.0,0.0
0.095903101690043,0.0763250377149878,0.0091974049137707,49.0,52.0,0.0
0.0955773473224335,0.0759068383905537,0.009135029321193,50.0,52.0,0.0
0.0951456756238005,0.0752704013644822,0.0090526995899094,51.0,52.0,0.0
0.0948747967426856,0.0750196019756593,0.0090012270569659,50.0,52.0,0.0
0.0948614262059648,0.074793819466804,0.0089986901818297,50.0,51.0,0.0
0.0954519412172662,0.075550252052635,0.0091110730821444,49.0,51.0,0.0
0.0959197564866051,0.0762478765201229,0.0092005996844496,49.0,51.0,0.0
0.0956706011739824,0.076065028493968,0.0091528639289912,49.0,52.0,0.0
0.0952364440918101,0.0756600809686676,0.0090699802832524,50.0,52.0,0.0
0.09480186562313,0.075314553196345,0.008987393725626,49.0,51.0,0.0
0.094961246938576,0.0757116241316982,0.0090176384201292,49.0,51.0,0.0
0.0945457284303698,0.0748539335169545,0.0089388947644292,49.0,52.0,0.0
0.0947344529579867,0.0749006977927811,0.008974616577249,50.0,52.0,0.0
0.0949123770307464,0.0748599914460365,0.0090083593136265,50.0,50.0,0.0
0.0948804613767086,0.0748982513251009,0.0090023019510571,49.0,50.0,0.0
0.0948427403815077,0.0747500411989621,0.008995145403074,50.0,49.0,0.0
0.0955877230228197,0.0757340851329157,0.0091370127926873,49.0,51.0,0.0
0.0967431508025744,0.0767770060781369,0.0093592372272096,49.0,51.0,0.0
0.0962232034341007,0.0764052997552761,0.0092589048791203,49.0,50.0,0.0
0.0952046717526044,0.0755801149308585,0.0090639295235211,50.0,50.0,0.0
0.0944229396759119,0.0747030229538099,0.0089156915370409,50.0,51.0,0.0
0.094328153958859,0.074746768563052,0.0088978006292862,49.0,49.0,0.0
0.0941611152785054,0.0745227249936756,0.0088663156304919,50.0,50.0,0.0
0.0948200632229352,0.0748018433419311,0.0089908443896014,50.0,49.0,0.0
0.0954123284920232,0.0756224321074706,0.0091035124282697,49.0,50.0,0.0
0.0954674885557852,0.0758339439442068,0.0091140413711489,49.0,50.0,0.0
0.0948669930859982,0.0750296269396261,0.0089997463771788,49.0,49.0,0.0
0.0946829132760647,0.0748769842515864,0.0089648540664427,49.0,51.0,0.0
0.0954359683445612,0.0756934389852649,0.009108024053864,49.0,51.0,0.0
0.0951621718207949,0.0755598840341824,0.0090558389456504,49.0,50.0,0.0
0.0948260884204825,0.0750925586896603,0.0089919870451291,50.0,50.0,0.0
0.0943727899206384,0.0744038275586267,0.0089062234774049,51.0,50.0,0.0
0.0941337543056778,0.0742041137508134,0.0088611636996817,50.0,50.0,0.0
0.0940772354577429,0.0738781292854763,0.0088505262313716,50.0,49.0,0.0
0.0945576450996624,0.0745430059228841,0.0089411482467937,49.0,49.0,0.0
0.0950675946651838,0.0752736895520029,0.0090378475554237,49.0,49.0,0.0
0.0948923470690382,0.0751995619422291,0.0090045575322708,49.0,50.0,0.0
0.0945349733749588,0.0748467340020092,0.0089368611910041,50.0,50.0,0.0
0.0941052047492314,0.074244941461195,0.0088557895608947,50.0,52.0,0.0
0.0941264237675583,0.0744264657088962,0.0088597836512699,49.0,53.0,0.0
0.0939041202464315,0.0739144462480644,0.0088179837992562,50.0,52.0,0.0
0.0943870391529563,0.0742620426771167,0.0089089131600617,50.0,52.0,0.0
0.0947454466775584,0.0746262331860061,0.00897669966613,50.0,52.0,0.0
0.0947616374711189,0.0747295332766193,0.0089797679362077,49.0,52.0,0.0
0.0946492411024586,0.0744665851228654,0.0089584788412713,50.0,51.0,0.0
0.095223515181424,0.0753318301813899,0.0090675178435068,49.0,51.0,0.0
0.0962432977476612,0.0763244942978427,0.0092627723613449,49.0,51.0,0.0
0.09563514160008,0.0759642822601157,0.0091460803088673,49.0,52.0,0.0
0.0945842178315787,0.0750633604618703,0.0089461742628115,50.0,52.0,0.0
0.0937337264621713,0.0741298012515422,0.0087860114764851,50.0,53.0,0.0
0.0935579947668111,0.0740125444106148,0.0087530983847866,49.0,52.0,0.0
0.0934350120399005,0.0738932335358513,0.0087301014748963,50.0,52.0,0.0
0.0941480964918702,0.0742618064929352,0.0088638640730425,50.0,51.0,0.0
0.0947763220838761,0.0751073219715979,0.0089825512277466,49.0,52.0,0.0
0.0948339563584781,0.0753011279269785,0.0089934792786017,49.0,52.0,0.0
0.0942238211390803,0.0745115418077279,0.0088781284700494,49.0,51.0,0.0
0.0939764373676197,0.0741994118939089,0.0088315707803101,49.0,53.0,0.0
0.0945825677974455,0.074920573075205,0.0089458621311583,49.0,53.0,0.0
0.0942994490276285,0.0747586796050896,0.0088923860869143,49.0,52.0,0.0
0.0940796917497638,0.0745182031542425,0.0088509883997305,50.0,52.0,0.0
0.0936674834391737,0.0739033683867008,0.0087735974538278,50.0,52.0,0.0
0.0934407674396413,0.0737087563830839,0.0087311770197091,50.0,52.0,0.0
0.0934003450324165,0.0734226137486516,0.0087236244521744,50.0,51.0,0.0
0.0940503742470747,0.0741962186775646,0.0088454728960148,49.0,51.0,0.0
0.0948141065002348,0.0750469001951945,0.0089897147914378,49.0,51.0,0.0
0.0947250994985682,0.0751181909562205,0.0089728444750136,49.0,52.0,0.0
0.0944224989623686,0.0747413604775981,0.0089156083102985,50.0,52.0,0.0
0.0940442384716944,0.0740802878197769,0.0088443187897209,50.0,54.0,0.0
0.0940260577728095,0.0741847243029736,0.0088408995402957,49.0,55.0,0.0
0.0938713511608326,0.0738030569022158,0.0088118305687603,50.0,54.0,0.0
0.0942949235369142,0.0740682199357903,0.0088915326048324,50.0,54.0,0.0
0.0946164077419094,0.0745130842608089,0.0089522646139832,49.0,54.0,0.0
0.0946261978582831,0.0745979929777163,0.0089541173211149,49.0,54.0,0.0
0.0945413427369493,0.0743628230763127,0.0089380654865053,50.0,53.0,0.0
0.0951354025218352,0.0752227489526099,0.0090507448129916,49.0,53.0,0.0
0.0960740670105308,0.076205378376462,0.0092302263519439,49.0,53.0,0.0
0.095496061665158,0.0758670437533812,0.0091194977935556,49.0,54.0,0.0
0.094498254973979,0.0750739581130233,0.0089299201931271,50.0,54.0,0.0
0.0937236798288836,0.0741782472797576,0.008784128160667,50.0,55.0,0.0
0.0936081810556265,0.0742010049107009,0.0087624915605429,49.0,53.0,0.0
0.0934720754062012,0.0740377132284225,0.0087370288807425,50.0,54.0,0.0
0.0942128869828938,0.0743885158549019,0.0088760680736515,50.0,53.0,0.0
0.0948960600471369,0.0752552779446283,0.0090052622124698,49.0,54.0,0.0
0.0949784719351165,0.0754769612036634,0.0090209101311297,49.0,54.0,0.0
0.0943528323989654,0.0747664957114912,0.0089024569817072,49.0,53.0,0.0
0.0940228170280896,0.0743495297308566,0.0088402901218976,49.0,55.0,0.0
0.0946412176733642,0.0751032039989331,0.0089569600826971,49.0,55.0,0.0
0.0943956930495571,0.0749726410550985,0.0089105468663062,49.0,54.0,0.0
0.0942019619602202,0.0746957360233934,0.0088740096371547,50.0,54.0,0.0
0.0938344428127473,0.0741110870529037,0.0088049026579787,50.0,54.0,0.0
0.0936188713250063,0.0739226738993744,0.008764493068168,50.0,54.0,0.0
0.0935455092145621,0.0735708708227948,0.0087507622942117,50.0,53.0,0.0
0.0940629637835986,0.0742661185423547,0.0088478411557545,49.0,53.0,0.0
0.0946944359989845,0.0750483167031432,0.0089670362091657,49.0,53.0,0.0
0.0945448741990552,0.0750535852737238,0.0089387332373151,49.0,54.0,0.0
0.0942094790545814,0.0746890739082837,0.0088754259437356,50.0,54.0,0.0
0.0937866842050239,0.0740008516861247,0.0087959421341728,50.0,56.0,0.0
0.093755237298303,0.074081547334742,0.0087900445208611,49.0,57.0,0.0
0.0935857783285261,0.0736943951332248,0.008758297905356,50.0,56.0,0.0
0.094090177313131,0.0739869482245643,0.0088529614668164,50.0,56.0,0.0
0.0944864855981532,0.0744727600234046,0.00892769596069,49.0,56.0,0.0
0.0945066907751548,0.0746040095001238,0.0089315146012707,49.0,56.0,0.0
0.0943953600149987,0.0743415737105556,0.0089104839923612,50.0,55.0,0.0
0.0949343837269692,0.0751972971204813,0.0090125372136194,49.0,55.0,0.0
0.0958966707972786,0.0761739767953855,0.0091961714700016,49.0,55.0,0.0
0.0953042007782796,0.075780195396026,0.0090828906859866,49.0,56.0,0.0
0.0943383066845292,0.0750263590692148,0.0088997161081042,50.0,56.0,0.0
0.0936041863824577,0.0741551516168476,0.0087617437083218,50.0,57.0,0.0
0.0935113736000586,0.074188552105261,0.0087443769925697,49.0,55.0,0.0
0.0933495125001739,0.0740094451434825,0.0087141314840201,50.0,56.0,0.0
0.0940772590546846,0.0743867294690094,0.0088505306712422,49.0,55.0,0.0
0.0947945396932825,0.0752907094633499,0.0089860047556613,49.0,56.0,0.0
0.0948745025024426,0.0755177779616308,0.009001171225086,49.0,56.0,0.0
0.0941882674526213,0.0747728772270003,0.0088714297257265,49.0,56.0,0.0
0.0938232718388497,0.0743362792543657,0.0088028063385466,49.0,57.0,0.0
0.0944194541083204,0.0750633689393862,0.0089150333141132,49.0,57.0,0.0
0.0941618683792382,0.0748734122162434,0.0088664574566689,49.0,56.0,0.0
0.0939670925474399,0.0746197511479618,0.0088298144818191,50.0,56.0,0.0
0.093600796548293,0.0739929186019154,0.0087611091144749,50.0,56.0,0.0
0.0934094825638858,0.0738535068779508,0.0087253314328528,50.0,56.0,0.0
0.093340698465278,0.0735247276347476,0.0087124859899859,50.0,55.0,0.0
0.0939846056691071,0.074287988653883,0.0088331061027775,49.0,55.0,0.0
0.0947330656135211,0.0751199243770332,0.0089743537205357,49.0,57.0,0.0
0.094608772363733,0.0751628529884299,0.0089508198081726,49.0,56.0,0.0
0.0942599097093644,0.0747388079303364,0.0088849305784175,50.0,56.0,0.0
0.0938483606864569,0.0741058192030769,0.0088075148035353,50.0,57.0,0.0
0.0938553201323924,0.0742959217252731,0.0088088211171538,49.0,57.0,0.0
0.093680704757432,0.0738169835392298,0.0087760744438491,50.0,56.0,0.0
0.094061459971245,0.0740387610743203,0.0088475582519221,50.0,56.0,0.0
0.0943581498810108,0.0744872451949315,0.0089034604489673,49.0,56.0,0.0
0.0943679707160142,0.0745755789528318,0.0089053138970585,49.0,56.0,0.0
0.0942986056841821,0.0743472435814196,0.0088922270339808,50.0,55.0,0.0
0.0948441342981098,0.0751794212795968,0.0089954098107578,49.0,55.0,0.0
0.0957706880945311,0.0761793148426654,0.0091720246980999,49.0,55.0,0.0
0.0952533980729107,0.0759043000495338,0.0090732098444364,49.0,56.0,0.0
0.0943566639390936,0.0752958232122146,0.008903180029715,50.0,56.0,0.0
0.0936378131623984,0.074467912742492,0.0087680400538362,50.0,57.0,0.0
0.0935633613038935,0.07451524746143,0.0087541025784829,49.0,56.0,0.0
0.0934216263968624,0.0743520787932221,0.0087276002786349,50.0,56.0,0.0
0.0941814672084483,0.0747434323134182,0.008870148765536,49.0,55.0,0.0
0.0949251305697539,0.0756539393556184,0.0090107804136848,49.0,56.0,0.0
0.0950173248960637,0.0758893413223287,0.0090282920304041,49.0,56.0,0.0
0.0943776170281822,0.0751139571394169,0.0089071345959182,49.0,56.0,0.0
0.0940871650493673,0.074775804523464,0.0088523946270268,49.0,57.0,0.0
0.0947178536854272,0.0755505138995555,0.008971471806774,49.0,57.0,0.0
0.0944407742293309,0.0753527173903614,0.0089190598370354,49.0,56.0,0.0
0.0941714507649082,0.0750344624191073,0.0088682621391675,50.0,56.0,0.0
0.0938031805933366,0.0744017318919178,0.0087990366894261,50.0,56.0,0.0
0.0935986027933961,0.074212674702414,0.0087606984448759,50.0,56.0,0.0
0.0935402576899402,0.0738575944557588,0.0087497798087004,50.0,55.0,0.0
0.0940601949615764,0.0745554834555004,0.0088473202762097,49.0,55.0,0.0
0.0946625625292268,0.0752969966158435,0.0089610007445997,49.0,55.0,0.0
0.0944803652041844,0.0752013141531099,0.008926539409116,49.0,56.0,0.0
0.0941089470695103,0.0748132667161554,0.0088564939185319,50.0,56.0,0.0
0.0936899298395896,0.0743087613472174,0.0087778029533472,50.0,56.0,0.0
0.0937467590023717,0.0745581053276549,0.0087884548234487,49.0,57.0,0.0
0.0934268408252228,0.0739312678847066,0.0087285745865815,50.0,58.0,0.0
0.093888994023016,0.074116037909545,0.0088151431986539,50.0,58.0,0.0
0.0942662894684437,0.0743322843229157,0.0088861333301484,50.0,58.0,0.0
0.0942792799777074,0.0744560213170939,0.0088885826331149,49.0,58.0,0.0
0.0941830761351626,0.0742253636262857,0.0088704518302818,50.0,57.0,0.0
0.0946710928342136,0.0750928571661605,0.0089626158184243,49.0,57.0,0.0
0.0956854451956474,0.0760910690579711,0.0091557044222892,49.0,57.0,0.0
0.0951022068821695,0.075736304945774,0.0090444297538589,49.0,58.0,0.0
0.0941777268395681,0.0750020542694216,0.0088694442326683,50.0,58.0,0.0
0.0934588911167527,0.0741849558544347,0.008734564328773,50.0,59.0,0.0
0.0932811178372754,0.0740147035434515,0.0087013669449716,49.0,58.0,0.0
0.0931962973121391,0.073939676065716,0.0086855498326926,50.0,57.0,0.0
0.0940043601523942,0.0744665252327247,0.008836819727661,49.0,57.0,0.0
0.0947651408349079,0.0753605611542085,0.0089804319174599,49.0,58.0,0.0
0.0947848495729269,0.0754983181860933,0.0089841677085623,49.0,58.0,0.0
0.0941040492306266,0.0746995762657842,0.0088555720816002,49.0,57.0,0.0
0.0937948739399165,0.0744341498572521,0.0087974783774048,49.0,57.0,0.0
0.0944160728888783,0.0751917551087361,0.0089143948197579,49.0,59.0,0.0
0.0941246722607912,0.074921590615158,0.0088594539282013,49.0,58.0,0.0
0.0938525699993093,0.0745789036134216,0.0088083048954752,50.0,56.0,0.0
0.0934790637903409,0.0739063105206326,0.0087383353671186,50.0,56.0,0.0
0.0933066361880951,0.0737881216064652,0.0087061283567375,50.0,56.0,0.0
0.0932147487650272,0.0733843315732688,0.0086889893873271,50.0,55.0,0.0
0.09361966137303,0.0740030587720005,0.0087646409956008,49.0,55.0,0.0
0.0942450923313484,0.0747648153664366,0.0088821374285443,49.0,57.0,0.0
0.0941133131006609,0.0747605191002611,0.008857315702783,49.0,56.0,0.0
0.0937635432164239,0.0743504667328872,0.0087916020364982,50.0,56.0,0.0
0.0933454631942386,0.0736182017868434,0.0087133754989469,51.0,58.0,0.0
0.0932822818422209,0.0735709988057645,0.0087015841056915,51.0,59.0,0.0
0.0931312645810454,0.0732326764361744,0.0086734324424646,52.0,58.0,0.0
0.0936537065809452,0.0735373880411641,0.0087710167563497,52.0,58.0,0.0
0.0940514396143165,0.0740374622412288,0.0088456732935254,52.0,58.0,0.0
0.0940738354649054,0.0741784179347414,0.0088498865190781,51.0,58.0,0.0
0.0939599904975315,0.0739113589458331,0.0088284798142962,52.0,57.0,0.0
0.0944326673595088,0.0747427444551173,0.0089175286646316,51.0,57.0,0.0
0.0953082528527082,0.0756821563380027,0.0090836630618357,51.0,57.0,0.0
0.0946225219216422,0.075239328645756,0.0089534216548116,51.0,58.0,0.0
0.0937266726206155,0.0745350936066501,0.008784689160532,52.0,58.0,0.0
0.0930902135992618,0.0737693217073452,0.0086657878679561,52.0,59.0,0.0
0.0929258594723937,0.0736397927868309,0.008635215358683,51.0,58.0,0.0
0.0928296449134096,0.0735584102221807,0.0086173429747497,52.0,57.0,0.0
0.0937406268609017,0.0742135570922782,0.0087873051242748,51.0,57.0,0.0
0.0946332229287599,0.0751607905884762,0.0089554468818843,51.0,58.0,0.0
0.094630487706084,0.0752364905486602,0.0089549292034913,51.0,58.0,0.0
0.0938881552819111,0.074432844581706,0.0088149857022402,51.0,58.0,0.0
0.0934658759470581,0.0739509586871639,0.0087358699665508,51.0,59.0,0.0
0.0940182678698565,0.0746626385831328,0.008839434693248,51.0,59.0,0.0
0.0937104063658627,0.0744545185573162,0.0087816402612551,51.0,58.0,0.0
0.0935012552757124,0.0742068280418899,0.0087424847381339,52.0,58.0,0.0
0.0931500257542517,0.0736811699373391,0.0086769272980177,52.0,58.0,0.0
0.0929868011930429,0.0735955462750931,0.0086465451961144,52.0,58.0,0.0
0.092867445875064,0.0731449386910009,0.0086243625033579,52.0,55.0,0.0
0.0932500453360632,0.0736365700882445,0.0086955709551778,51.0,57.0,0.0
0.0939065831683458,0.0744139045727757,0.0088184463623534,51.0,57.0,0.0
0.0938088123402264,0.0745381779573651,0.0088000932726838,51.0,58.0,0.0
0.0934981359300501,0.074123690965865,0.0087419014223941,52.0,58.0,0.0
0.0930821698970949,0.0733827709873789,0.0086642903527516,53.0,58.0,0.0
0.0929564289209208,0.0733003043285975,0.0086408976777302,53.0,59.0,0.0
0.0928729762879104,0.0730091848436055,0.0086253897245747,54.0,58.0,0.0
0.0934233501595355,0.0734142331644504,0.0087279223550311,53.0,57.0,0.0
0.0937835603261189,0.0739770535035541,0.0087953561874427,53.0,58.0,0.0
0.0937685298113977,0.0739777647986953,0.0087925371829909,53.0,58.0,0.0
0.0936378199127989,0.0736615896977615,0.0087680413180217,54.0,57.0,0.0
0.0940171131419355,0.0744360573491465,0.0088392175635435,53.0,57.0,0.0
0.0948263176910897,0.0753645400193842,0.0089920305268514,53.0,61.0,0.0
0.0941489065759788,0.0748793777834979,0.0088640166094523,53.0,60.0,0.0
0.0933689842888713,0.0742731991747413,0.0087177672271354,54.0,60.0,0.0
0.0928435781173436,0.073620727076773,0.0086199299976312,54.0,60.0,0.0
0.0926839085306804,0.073503828207547,0.0085903069005235,53.0,60.0,0.0
0.0926145910018265,0.073438422347827,0.0085774624664356,54.0,59.0,0.0
0.0935446114706009,0.074118952735747,0.0087505943351856,53.0,59.0,0.0
0.0944719557059872,0.0750987403686472,0.008924950414914,53.0,60.0,0.0
0.0944381154556916,0.0751555456628434,0.0089185576508225,53.0,60.0,0.0
0.093699837460241,0.0743016182627152,0.0087796595400755,53.0,60.0,0.0
0.0932860343618293,0.0739246995315124,0.0087022842069564,53.0,59.0,0.0
0.0938250716277577,0.074620337278554,0.0088031440659538,53.0,59.0,0.0
0.0935636695278932,0.0743206888230751,0.0087541602555248,53.0,58.0,0.0
0.0934233329343618,0.0743823622310099,0.0087279191365646,54.0,60.0,0.0
0.0931468951217506,0.0737926425923967,0.0086763440708224,54.0,60.0,0.0
0.0930418986417116,0.0737164322696612,0.0086567949028545,54.0,60.0,0.0
0.0929100113143714,0.0732979519886329,0.0086322702024366,54.0,57.0,0.0
0.0932847621766554,0.0738922918050479,0.0087020468543551,53.0,59.0,0.0
0.0938237302333961,0.074607164815149,0.0088028923549091,53.0,59.0,0.0
0.0935376344481137,0.0745234816703095,0.0087492890581489,53.0,60.0,0.0
0.0930539572873635,0.0739940470364752,0.0086590389668384,54.0,60.0,0.0
0.0924665454783528,0.0730692027300217,0.0085500620327002,55.0,60.0,0.0
0.0922972129922557,0.0728706906645209,0.0085187755261378,55.0,61.0,0.0
0.092212196738794,0.0726230412076982,0.008503089227394,56.0,59.0,0.0
0.0928744130438062,0.0731265672219671,0.0086256565982315,55.0,59.0,0.0
0.0933241787489649,0.0737458015770191,0.0087094023391687,55.0,60.0,0.0
0.0933078770790507,0.0737332160620985,0.0087063599249992,55.0,60.0,0.0
0.0931705404007976,0.0734508272810024,0.0086807495985766,56.0,59.0,0.0
0.0934790859197574,0.0740401926519302,0.0087383395043934,55.0,59.0,0.0
0.0942982477630999,0.0749867988006822,0.0088921595311909,55.0,59.0,0.0
0.093745181806874,0.074560085505766,0.0087881591120038,55.0,60.0,0.0
0.0931330779949456,0.0741420463507492,0.0086737702168126,56.0,60.0,0.0
0.0927332577915684,0.0735418296711497,0.0085994571006374,56.0,60.0,0.0
0.0926502606462707,0.0735191004150891,0.0085840707978219,55.0,60.0,0.0
0.0925697794481154,0.0734867202957126,0.0085691640670727,56.0,59.0,0.0
0.0936058439394771,0.0742011747778765,0.0087620540196217,55.0,59.0,0.0
0.0947209731794072,0.0752955980330173,0.0089720627600539,55.0,60.0,0.0
0.0948019475894368,0.0754687456534116,0.0089874092667503,55.0,60.0,0.0
0.0940733190360266,0.0746881750361297,0.008849789354454,55.0,60.0,0.0
0.0935891840201265,0.0741451994702008,0.0087589353655531,55.0,59.0,0.0
0.0940306135862208,0.0747848143564786,0.0088417562914011,55.0,59.0,0.0
0.0937238012541771,0.0744441234667696,0.0087841509215325,55.0,60.0,0.0
0.0936202590060438,0.074436542542852,0.0087647528963587,56.0,60.0,0.0
0.0933461762046913,0.0739164742961904,0.0087135086120372,56.0,60.0,0.0
0.0932203670223139,0.0739093467572132,0.0086900368277749,56.0,60.0,0.0
0.0930929427644015,0.0734602078306411,0.0086662959925361,56.0,59.0,0.0
0.0935647296312382,0.0740768280766609,0.0087543586309667,55.0,59.0,0.0
0.0942940347664204,0.0748734959912397,0.0088913649925309,55.0,59.0,0.0
0.0941207162282974,0.0749059538898546,0.0088587092233277,55.0,60.0,0.0
0.0937504209455348,0.0744643564411834,0.0087891414274649,56.0,60.0,0.0
0.0932666179400669,0.0736617830496141,0.0086986620219784,57.0,60.0,0.0
0.0931159284400262,0.0735103047611308,0.008670576129248,57.0,61.0,0.0
0.0930454484491458,0.073281499899577,0.0086574554771026,58.0,59.0,0.0
0.0938004124656645,0.0738059551501293,0.0087985173787288,57.0,59.0,0.0
0.0943341252546087,0.0744840330081822,0.0088989271875522,57.0,60.0,0.0
0.0943366696500591,0.0745447309575604,0.0088994072406643,57.0,60.0,0.0
0.0941778899253919,0.074233566444783,0.0088694749507992,58.0,59.0,0.0
0.0944975548545405,0.0748639022832411,0.0089297878734869,57.0,59.0,0.0
0.0953360904785051,0.0758218469471951,0.0090889701477257,57.0,59.0,0.0
0.0947565303465756,0.0754036589330655,0.0089788000433215,57.0,60.0,0.0
0.0940585603389369,0.0748789048469786,0.0088470127730334,58.0,60.0,0.0
0.0935804869548036,0.0741788800628167,0.0087573075386981,58.0,60.0,0.0
0.0934636612451423,0.0741476678624375,0.0087354559733467,57.0,60.0,0.0
0.093399427620173,0.0740931445605516,0.0087234530797759,58.0,59.0,0.0
0.0944366698100872,0.0748562822771222,0.0089182846048194,57.0,59.0,0.0
0.0955236815098477,0.0759490514015746,0.0091247737291948,57.0,60.0,0.0
0.0955398291373885,0.0760889853146722,0.0091278589516013,57.0,60.0,0.0
0.0947280065080249,0.0752715551778721,0.0089733952169844,57.0,60.0,0.0
0.0942385715748654,0.0747886528553663,0.008880908372471,58.0,59.0,0.0
0.0947089600437522,0.0754309231426946,0.008969787112569,57.0,59.0,0.0
0.0944218237698599,0.07503675451415,0.0089154808040264,57.0,60.0,0.0
0.0943163491683014,0.0750025260496378,0.0088955737204369,58.0,60.0,0.0
0.0940637988820023,0.0744918527788339,0.0088479982601137,58.0,60.0,0.0
0.0939472119416302,0.0744820246119038,0.0088260786316055,57.0,60.0,0.0
0.0938031470917366,0.0739573392959972,0.0087990304043139,58.0,59.0,0.0
0.0941325351570445,0.0745074990625121,0.0088609341750922,57.0,59.0,0.0
0.0947084925427232,0.0752344473513019,0.008969698559715,57.0,61.0,0.0
0.0944732628174032,0.0751688903377041,0.0089251973873661,57.0,62.0,0.0
0.0940369628260806,0.074713892453411,0.0088429503775536,58.0,60.0,0.0
0.0935082958064759,0.0739211939151752,0.0087438013846314,59.0,62.0,0.0
0.0933945569635987,0.073761115297559,0.0087225432704268,58.0,63.0,0.0
0.0932886763168136,0.07351248475908,0.0087027771289432,58.0,62.0,0.0
0.0939725091077779,0.0738093227287124,0.0088308324680114,58.0,62.0,0.0
0.0945100971443938,0.0744472864066344,0.0089321584622427,57.0,62.0,0.0
0.0945469235704934,0.0746145490717084,0.0089391207566447,57.0,62.0,0.0
0.0944186857491483,0.0743357693724768,0.0089148882185964,58.0,61.0,0.0
0.0947281693871979,0.0750441973402928,0.0089734260754496,57.0,61.0,0.0
0.0954784013204919,0.0759669067627585,0.0091161251187169,57.0,63.0,0.0
0.0949109070168888,0.0754571856966716,0.0090080802707685,57.0,62.0,0.0
0.0942662389021416,0.0749576984708935,0.0088861237967556,58.0,62.0,0.0
0.0938576451151884,0.074321065343639,0.0088092575465686,58.0,62.0,0.0
0.093758167273339,0.0743511791373682,0.0087905939304554,57.0,62.0,0.0
0.0936683420872986,0.0742378324352488,0.0087737583093832,58.0,61.0,0.0
0.0946147469648447,0.0750260466773006,0.0089519503432215,57.0,61.0,0.0
0.0956274004442818,0.076070570686876,0.009144599715731,57.0,61.0,0.0
0.09559575309034,0.0761374886809376,0.0091385480089092,57.0,62.0,0.0
0.0948120706139042,0.0753066472230147,0.0089893287340959,57.0,62.0,0.0
0.0942973564015988,0.0747954301821846,0.0088919914243301,57.0,61.0,0.0
0.0947106476506692,0.0753915602095643,0.0089701067784092,57.0,61.0,0.0
0.094368517818868,0.0749638960693017,0.00890541715533,57.0,62.0,0.0
0.0941905112768553,0.0748878123673194,0.0088718524145954,58.0,62.0,0.0
0.093927609450162,0.0743420294668442,0.0088223958170221,58.0,62.0,0.0
0.093812606335646,0.0743330238776639,0.0088008051074868,57.0,62.0,0.0
0.0936852132559712,0.0738633655178671,0.0087769191828168,58.0,59.0,0.0
0.094096649741172,0.0744586857264501,0.0088541794925128,57.0,61.0,0.0
0.0947425364850663,0.0751950877756789,0.0089761482196241,57.0,61.0,0.0
0.0945599946846689,0.0751916221725924,0.0089415925947646,55.0,62.0,0.0
0.0941849007205236,0.0747380834891679,0.0088707955237348,56.0,62.0,0.0
0.0937246706203179,0.0739149319966752,0.008784313882887,56.0,62.0,0.0
0.093605174672112,0.0738976064060507,0.0087619287253966,55.0,63.0,0.0
0.0935168773902305,0.0736119503582135,0.0087454063568194,56.0,61.0,0.0
0.0942070287701462,0.074073335716387,0.0088749642696991,55.0,61.0,0.0
0.0946365476420792,0.0746846978530384,0.0089560761496115,55.0,62.0,0.0
0.0946257425631793,0.0747181032851705,0.008954031155633,55.0,62.0,0.0
0.0944369047402943,0.074344738958572,0.0089183289769274,56.0,61.0,0.0
0.0947699996373325,0.0750771203548181,0.00898135283126,55.0,61.0,0.0
0.0956854909010278,0.0760602964892693,0.0091557131689706,55.0,63.0,0.0
0.0950426847827181,0.0756123544589533,0.0090331119307071,57.0,62.0,0.0
0.0943551100904478,0.0750499998206049,0.0089028868001805,56.0,62.0,0.0
0.0938993998687252,0.0744911609763831,0.0088170972957067,56.0,62.0,0.0
0.0937344241032985,0.0743491511859828,0.008786142261977,55.0,62.0,0.0
0.0936516435869248,0.0741969758946634,0.0087706303465324,56.0,61.0,0.0
0.0945597948290316,0.0750321186662194,0.0089415547981085,57.0,61.0,0.0
0.0954545687258905,0.0759871589484945,0.0091115746906457,57.0,62.0,0.0
0.0952909225430786,0.0759000400394112,0.009080359919111,57.0,62.0,0.0
0.0944687991539501,0.0750525425182758,0.0089243540135893,57.0,62.0,0.0
0.0939361037293204,0.0745115882694035,0.0088239915838456,58.0,61.0,0.0
0.0944429163830234,0.0751854614358542,0.0089194644549307,57.0,61.0,0.0
0.0941998906147292,0.0749591320688364,0.0088736193918269,57.0,62.0,0.0
0.0940520014828721,0.0747890609047668,0.0088457789829341,58.0,62.0,0.0
0.0938202476925064,0.0742814085751536,0.0088022388770832,58.0,62.0,0.0
0.0937363942012471,0.0743266068451981,0.0087865115978516,58.0,62.0,0.0
0.0935746808661588,0.0738379324199158,0.0087562208992034,58.0,61.0,0.0
0.0939152380226535,0.0742565816921948,0.0088200719328516,57.0,61.0,0.0
0.0945534244433885,0.0749762872525931,0.0089403500739715,55.0,61.0,0.0
0.0944163570543202,0.0750881230421582,0.0089144484794088,55.0,62.0,0.0
0.094080028015854,0.0745962575983462,0.0088510516714638,54.0,62.0,0.0
0.093626773174755,0.0739078417965707,0.008765972655117,55.0,62.0,0.0
0.0934160527026327,0.0736607790862692,0.008726558902541,55.0,61.0,0.0
0.0933820714235209,0.0734312208811404,0.0087202112633475,56.0,61.0,0.0
0.0939984308810589,0.0740163024484189,0.0088357050081012,55.0,63.0,0.0
0.0943269305681213,0.0745521941120686,0.0088975698304031,55.0,62.0,0.0
0.0942845185916141,0.0745033937189608,0.0088895704460524,55.0,62.0,0.0
0.0941614430424105,0.0742504055373486,0.0088663773558291,56.0,61.0,0.0
0.0946703373647716,0.0750387741414573,0.0089624727767596,55.0,61.0,0.0
0.0956987116483043,0.0760938503266075,0.0091582434111453,55.0,63.0,0.0
0.0952496332038586,0.0757465645614656,0.0090724926254696,57.0,62.0,0.0
0.094612981641517,0.075175001601494,0.008951616295098,58.0,62.0,0.0
0.0942321191473992,0.0745266134725694,0.0088796922790096,56.0,61.0,0.0
0.0941776085772318,0.0746796178973996,0.0088694219573262,55.0,62.0,0.0
0.0940546818377101,0.0744599317153686,0.0088462831755928,56.0,61.0,0.0
0.0949523235593761,0.0752692012780222,0.0090159437493244,57.0,61.0,0.0
0.0957877747715448,0.0761894471972801,0.0091752977956841,57.0,62.0,0.0
0.0956431790036653,0.0761321609754068,0.0091476176899271,55.0,62.0,0.0
0.0947636940495298,0.0752902828215031,0.0089801577099128,55.0,62.0,0.0
0.0941774932754936,0.0747322840123096,0.0088694002396556,56.0,61.0,0.0
0.0947410792841624,0.0754353544234727,0.0089758721039279,57.0,61.0,0.0
0.0944913575262434,0.0751988589816258,0.0089286166471523,57.0,62.0,0.0
0.0942811426179646,0.0749634458629964,0.0088889338533489,58.0,62.0,0.0
0.0940424700918891,0.0743763591123058,0.0088439861809838,58.0,62.0,0.0
0.0939674520204577,0.0744356216178376,0.008829882039217,58.0,62.0,0.0
0.0938014863230961,0.0739233494353865,0.0087987188364219,58.0,61.0,0.0
0.0941424081742008,0.0743963224148051,0.0088627930168378,57.0,61.0,0.0
0.0946832996041304,0.0750625982737729,0.0089649272239255,55.0,61.0,0.0
0.0944817531824329,0.0751009177183741,0.0089268016844261,55.0,62.0,0.0
0.0941072563079928,0.0745745768283341,0.0088561756898182,56.0,62.0,0.0
0.0936247523160054,0.0738781819154982,0.0087655942462333,56.0,62.0,0.0
0.0934110738802256,0.0736485524685422,0.0087256287234569,53.0,61.0,0.0
0.0933689673372091,0.0733911825782918,0.0087177640616168,54.0,61.0,0.0
0.09389535792428,0.0739273419511143,0.0088163382397286,53.0,63.0,0.0
0.0941686535474652,0.0744260338896615,0.0088677353109425,53.0,62.0,0.0
0.094127527446435,0.0743894429443931,0.0088599914231793,53.0,62.0,0.0
0.0940191395947528,0.0741649153622602,0.0088395986101376,54.0,61.0,0.0
0.0946617449502773,0.075015522520305,0.0089608459570313,53.0,61.0,0.0
0.0957033383554468,0.0760655981526596,0.0091591289723771,57.0,61.0,0.0
0.0952824669961178,0.0757060850197487,0.0090787485168662,55.0,62.0,0.0
0.0946939451173892,0.0750743733357783,0.0089669432418951,56.0,62.0,0.0
0.094427366946999,0.0745575920512358,0.0089165276285432,56.0,61.0,0.0
0.0944869108757956,0.0749062363018211,0.0089277763268505,53.0,61.0,0.0
0.0943264154186632,0.0745325220288906,0.0088974726457342,54.0,61.0,0.0
0.0949317764555774,0.075191662785448,0.0090120421810117,57.0,61.0,0.0
0.0954181108598839,0.0758748732382901,0.0091046158800691,55.0,62.0,0.0
0.095114254889151,0.0756455104772457,0.0090467214831184,55.0,62.0,0.0
0.0941938779246232,0.0747918422350978,0.0088724866384788,55.0,62.0,0.0
0.0935840666692048,0.0742837067310158,0.0087579775343461,56.0,61.0,0.0
0.0941389564859388,0.0749859073949895,0.0088621431282614,55.0,61.0,0.0
0.0939409387916617,0.0747850286763325,0.0088248999810587,55.0,62.0,0.0
0.0937084551049386,0.0744608586168978,0.0087812745581543,56.0,62.0,0.0
0.0935014109293441,0.073850392277874,0.008742513845778,56.0,62.0,0.0
0.0934434162703404,0.0738865803431524,0.0087316720442721,56.0,62.0,0.0
0.0932588712694381,0.0733686093195133,0.0086972170704496,56.0,61.0,0.0
0.0935885417582445,0.07382529306757,0.0087588151484346,53.0,61.0,0.0
0.0939573275308121,0.0743789888159816,0.0088279793967323,53.0,61.0,0.0
0.0936993192083062,0.0743445952588467,0.0087795624201,53.0,62.0,0.0
0.0933517801602446,0.0738601316913816,0.0087145548590866,54.0,62.0,0.0
0.0929711458752549,0.0735033997788075,0.0086436339653579,54.0,61.0,0.0
0.0929213382017434,0.0736033093820812,0.0086343750932027,53.0,59.0,0.0
0.092869014928189,0.0731650911816791,0.0086246539337322,54.0,59.0,0.0
0.0933322260409661,0.0737911443540108,0.0087109044177619,53.0,59.0,0.0
0.0934866448393763,0.0741967681848943,0.0087397527633236,53.0,60.0,0.0
0.0934122521185103,0.074144565090619,0.0087258488458521,53.0,60.0,0.0
0.0932014808046707,0.0738036771701941,0.0086865160241834,54.0,59.0,0.0
0.0939518538915066,0.0746310866107007,0.008826950849651,53.0,59.0,0.0
0.0952393242219956,0.0758028646948465,0.0090705288782623,55.0,59.0,0.0
0.0948898781031475,0.0754784229584485,0.0090040889664302,55.0,60.0,0.0
0.0943575549336968,0.0748015920169266,0.0089033481730656,56.0,60.0,0.0
0.0941548456353692,0.0743004839356786,0.0088651349566202,54.0,59.0,0.0
0.0943436942071662,0.0748060746378532,0.0089007326366552,53.0,59.0,0.0
0.0941629598684033,0.0743501463488161,0.0088666630111785,53.0,59.0,0.0
0.094430075342898,0.0748548964391312,0.0089170391292653,55.0,59.0,0.0
0.0945808347102993,0.0752345465513307,0.0089455342944969,55.0,60.0,0.0
0.0940754475501172,0.0747568978291664,0.0088501898317548,53.0,60.0,0.0
0.0930017540866703,0.0737834197018412,0.0086493262631974,53.0,60.0,0.0
0.0922517465399724,0.0731319877557833,0.0085103847396753,54.0,59.0,0.0
0.0926891075685026,0.073706747358753,0.0085912706618454,53.0,59.0,0.0
0.0925092054256937,0.0734402684754493,0.0085579530884932,53.0,60.0,0.0
0.0923042050987605,0.0732717213829843,0.008520066278914,54.0,60.0,0.0
0.0921269681872941,0.0726448537457943,0.0084873782673827,55.0,60.0,0.0
0.0920927774499379,0.0727186458908832,0.0084810796584438,54.0,60.0,0.0
0.0919023686696758,0.0722277515782277,0.008446045367097,54.0,59.0,0.0
0.0922125614305974,0.0727531711742513,0.0085031564855917,53.0,59.0,0.0
0.0925189499531482,0.0732467030715048,0.0085597561004331,51.0,59.0,0.0
0.0921679698511719,0.0730952676545255,0.0084949346664865,55.0,60.0,0.0
0.0917158704933171,0.072515572370661,0.0084118009003469,56.0,60.0,0.0
0.0912013116219199,0.0719737444433718,0.0083176792415585,56.0,59.0,0.0
0.0910665003364634,0.0720382007990748,0.008293107483531,55.0,57.0,0.0
0.0910062133921671,0.0716091882070851,0.0082821308759806,56.0,57.0,0.0
0.0915342498173626,0.0722789681208718,0.0083785188896273,55.0,57.0,0.0
0.0916512440313803,0.0726539620355262,0.0083999505324996,55.0,58.0,0.0
0.0915139576015006,0.0724908729008513,0.0083748044358892,55.0,58.0,0.0
0.0912513018535999,0.0721676030524948,0.0083268000899768,56.0,57.0,0.0
0.0920112103508286,0.0729901093350979,0.0084660628302244,55.0,57.0,0.0
0.0934974428099343,0.0742898572542345,0.0087417718119969,55.0,57.0,0.0
0.0931962990345656,0.0739618541939784,0.0086855501537401,55.0,58.0,0.0
0.0925962268048462,0.0732292248756723,0.0085740612184945,56.0,58.0,0.0
0.0922993431881358,0.0725722269616467,0.0085191687529612,56.0,57.0,0.0
0.0923636464710138,0.07294532384805,0.0085310431894224,53.0,57.0,0.0
0.0921758552799538,0.0724628574246922,0.0084963882965909,56.0,57.0,0.0
0.0925694550111626,0.0730642855884569,0.0085691040010636,55.0,57.0,0.0
0.0928614773887657,0.0735814589726737,0.0086232539828242,55.0,58.0,0.0
0.0924515691416671,0.0732623778524304,0.0085472926367564,53.0,58.0,0.0
0.0914497130575698,0.0723528662095157,0.0083630500183118,53.0,58.0,0.0
0.0908360697059069,0.0718943013631643,0.0082511915596163,54.0,57.0,0.0
0.0913402352973573,0.0725328145497467,0.0083430385841766,53.0,57.0,0.0
0.0911764236202475,0.0723113292300883,0.0083131402241788,53.0,58.0,0.0
0.0908772423814139,0.0718142036466294,0.0082586731828502,53.0,58.0,0.0
0.0907305384567144,0.0713765367302841,0.0082320306086453,53.0,58.0,0.0
0.0907229560777592,0.0715097580681552,0.008230654759487,50.0,59.0,0.0
0.0905075486125613,0.0710329261510441,0.0081916163558551,52.0,59.0,0.0
0.0907708129366727,0.0713364701640982,0.0082393404811844,51.0,59.0,0.0
0.0909879324067668,0.0717348976551826,0.0082788038436583,49.0,60.0,0.0
0.090677138795653,0.0716310993957169,0.0082223435001661,49.0,60.0,0.0
0.090325763066219,0.0712039787330181,0.0081587434734947,50.0,60.0,0.0
0.0899585820788211,0.0709495261313222,0.008092546489632,50.0,59.0,0.0
0.0899956509758244,0.0711573040646454,0.0080992171945624,49.0,57.0,0.0
0.0899479146468957,0.0708001958378436,0.0080906273493252,49.0,57.0,0.0
0.0903856150977608,0.0714013484612615,0.0081695594166005,49.0,57.0,0.0
0.090472884915055,0.0717380706635547,0.0081853429048527,49.0,58.0,0.0
0.0903428735908437,0.0715568066598532,0.0081618348086511,49.0,58.0,0.0
0.0901259517810856,0.0712304393678413,0.0081226871844465,50.0,57.0,0.0
0.0909319929390675,0.072080466002482,0.0082686273398706,49.0,57.0,0.0
0.0922669754449591,0.0732801034845393,0.0085131947577607,49.0,57.0,0.0
0.0918991687426583,0.072981460611042,0.0084454572155915,49.0,58.0,0.0
0.0913314744224463,0.0723822549932136,0.0083414382201779,50.0,58.0,0.0
0.0911522386286054,0.0719221771787162,0.0083087306070062,50.0,57.0,0.0
0.0914049197246355,0.0724594841482616,0.008354859349867,49.0,57.0,0.0
0.0912211190093572,0.0720519383872486,0.0083212925533193,49.0,57.0,0.0
0.0915230648949445,0.0725437942861608,0.0083764714077642,49.0,57.0,0.0
0.0917473080095753,0.0730006269921348,0.0084175685270038,49.0,58.0,0.0
0.0913251903122994,0.0725921059383171,0.0083402903855777,49.0,58.0,0.0
0.0903483546390157,0.0716541439487773,0.0081628251859773,50.0,58.0,0.0
0.0897400360041712,0.0711075906755351,0.0080532740620299,50.0,57.0,0.0
0.0903538785003807,0.071768563430635,0.0081638233600615,49.0,57.0,0.0
0.0901936163581906,0.0715962927581971,0.0081348884317684,49.0,58.0,0.0
0.0899291573740132,0.071268309783896,0.008087253346,50.0,58.0,0.0
0.0897390809453329,0.0707267540830415,0.008053102648913,51.0,58.0,0.0
0.0896843175445753,0.0707997452325827,0.0080432768134362,50.0,58.0,0.0
0.0895153724783143,0.0703054144837667,0.0080130019099313,50.0,57.0,0.0
0.0898492753132372,0.0707548844876715,0.0080728922743139,49.0,57.0,0.0
0.0901756395887002,0.071242916731193,0.0081316459752311,49.0,57.0,0.0
0.0898837639948326,0.0710997197745956,0.0080790910298787,49.0,58.0,0.0
0.0894915409858465,0.0706430226154239,0.0080087359080214,48.0,58.0,0.0
0.0890902185449798,0.0701499394161447,0.0079370670403922,48.0,57.0,0.0
0.089148236202549,0.0704758351353944,0.0079474080180254,47.0,57.0,0.0
0.089063277498531,0.0701445312948947,0.0079322673987803,47.0,55.0,0.0
0.0893511726489156,0.0703799146203768,0.0079836320537363,47.0,55.0,0.0
0.0894490781129146,0.070674782410698,0.0080011375752503,47.0,56.0,0.0
0.089408435392103,0.07062170704163,0.0079938683192638,47.0,56.0,0.0
0.089245590522574,0.0703101301948978,0.0079647754277229,48.0,55.0,0.0
0.0899887999662726,0.0712925022490443,0.0080979841193698,47.0,55.0,0.0
0.0911752234155617,0.0724116590563446,0.0083129213648776,47.0,55.0,0.0
0.0906638900177883,0.0720559894588757,0.0082199409531576,47.0,56.0,0.0
0.0899448946045369,0.0712635791930592,0.0080900840654212,48.0,56.0,0.0
0.0895486886630139,0.0706498537116284,0.0080189676412653,48.0,55.0,0.0
0.0895935684600563,0.0709127403821917,0.0080270075094068,47.0,55.0,0.0
0.0894115529052531,0.0704538920877789,0.0079944257929288,47.0,55.0,0.0
0.089668473200506,0.0709303003000432,0.0080404350861098,47.0,55.0,0.0
0.0898511948245255,0.0713535545558525,0.0080732372113948,47.0,56.0,0.0
0.0894219266415038,0.070965958941669,0.0079962809642784,47.0,56.0,0.0
0.0884199136848429,0.0700228417296002,0.007818081136035,48.0,56.0,0.0
0.0876984479421434,0.0693961074946852,0.0076910177714608,48.0,55.0,0.0
0.0881452230713976,0.0699503504146422,0.0077695803503064,47.0,55.0,0.0
0.0879472601897847,0.0697457471605148,0.0077347205748896,47.0,56.0,0.0
0.0876667510618559,0.0692802348363587,0.0076854592417414,48.0,56.0,0.0
0.0874670121690015,0.0687815941356245,0.0076504782177722,49.0,56.0,0.0
0.0873992310379002,0.0688792756630162,0.0076386255860162,48.0,57.0,0.0
0.0872272990237621,0.0683959191146917,0.0076086016949808,48.0,57.0,0.0
0.0874441399844559,0.0686968096068005,0.0076464776176211,47.0,57.0,0.0
0.0876620644155329,0.0691082862529313,0.007684637537593,47.0,57.0,0.0
0.0873754369441726,0.0690112358796262,0.007634466981185,47.0,58.0,0.0
0.0869960784442739,0.0685327587603494,0.0075683176646822,48.0,58.0,0.0
0.0865796490895037,0.0680750459317458,0.0074960356364616,48.0,57.0,0.0
0.0865139818220163,0.06818084517239,0.0074846690507001,47.0,57.0,0.0
0.0864515614460072,0.0678200451491135,0.0074738724764527,48.0,55.0,0.0
0.0867576814736839,0.0680811032749202,0.0075268952946892,47.0,55.0,0.0
0.0868767858744858,0.0683899695511196,0.0075475759238812,47.0,56.0,0.0
0.0868469479206525,0.0683784516346112,0.0075423923631325,47.0,56.0,0.0
0.0866881626982342,0.068040444085884,0.0075148375519955,48.0,55.0,0.0
0.0872666034238785,0.0689084879172852,0.0076154600731404,47.0,55.0,0.0
0.0882059912309581,0.0699291354984963,0.0077802968890358,47.0,57.0,0.0
0.0876727300834308,0.0695887665374944,0.0076865076002821,47.0,56.0,0.0
0.0868933426255539,0.0688127691412826,0.0075504529926419,48.0,56.0,0.0
0.0864068361701435,0.0680681675394332,0.007466141336934,48.0,55.0,0.0
0.0864486182596833,0.0683145147454333,0.0074733635990084,47.0,55.0,0.0
0.0862476090315519,0.0679122497084978,0.0074386500636594,47.0,55.0,0.0
0.086409986933744,0.0682337482870154,0.0074666858418898,47.0,55.0,0.0
0.0866156706072619,0.0686870017662375,0.0075022743947457,47.0,56.0,0.0
0.0863332527526695,0.0684253259212605,0.0074534305308563,47.0,56.0,0.0
0.0853533801030818,0.0675243509532222,0.0072851994950211,47.0,56.0,0.0
0.0845768409256798,0.0667130926610184,0.0071532420209677,48.0,55.0,0.0
0.084881738647694,0.0671570147175532,0.0072049095558554,47.0,55.0,0.0
0.0846003845267074,0.0669763854043935,0.0071572250620667,47.0,56.0,0.0
0.0842780070264943,0.0664372233599633,0.0071027824683578,48.0,56.0,0.0
0.0839890332686649,0.0659230122412894,0.0070541577094049,49.0,56.0,0.0
0.0838609159872658,0.0658811852986207,0.0070326532302232,48.0,57.0,0.0
0.0836864425211162,0.0653739693811955,0.0070034206618401,48.0,57.0,0.0
0.0837551212856921,0.065512743990761,0.0070149203415809,47.0,57.0,0.0
0.0838688052471075,0.0658191556277777,0.0070339764935772,47.0,57.0,0.0
0.0836497877900972,0.0657338462003289,0.0069972869973283,47.0,58.0,0.0
0.0833462603610736,0.0653388879270871,0.0069465991161758,48.0,58.0,0.0
0.0829773457794563,0.0648173499047481,0.0068852399126034,48.0,57.0,0.0
0.0829031603149675,0.0649327868541824,0.0068729339902092,47.0,57.0,0.0
0.0827962562246237,0.0645904225997616,0.0068552200448135,48.0,56.0,0.0
0.0830372679167937,0.0647136795798395,0.0068951878630853,47.0,55.0,0.0
0.0831896313356208,0.0650439425737959,0.0069205147617565,47.0,56.0,0.0
0.0831918245117319,0.0650847400268891,0.0069208796655908,47.0,56.0,0.0
0.0830499945512681,0.064725914266099,0.0068973015949656,48.0,55.0,0.0
0.0835098844947909,0.0655334785077521,0.0069739008083333,47.0,55.0,0.0
0.0842185578386301,0.066379543659328,0.0070927654844186,47.0,55.0,0.0
0.0836346925709435,0.0660955473342974,0.0069947618014362,47.0,56.0,0.0
0.0827772645731777,0.0653547418665833,0.0068520755302178,48.0,56.0,0.0
0.0821965511120196,0.0646971301735356,0.0067562730147108,48.0,57.0,0.0
0.0822773238274365,0.0649006332550179,0.0067695580162048,47.0,55.0,0.0
0.0819806446590721,0.0645057655625192,0.006720826098717,47.0,56.0,0.0
0.0820326472214241,0.0643806681922317,0.0067293552101546,47.0,55.0,0.0
0.082301575622055,0.0649230903949979,0.0067735493498728,47.0,56.0,0.0
0.0822630017236907,0.0649514714929055,0.0067672014525919,47.0,56.0,0.0
0.0814919401298474,0.0642147407303979,0.0066409363061266,47.0,56.0,0.0
0.0809006292400472,0.0635210442209839,0.0065449118114355,48.0,57.0,0.0
0.0811454504107638,0.0639221800638192,0.0065845841223657,47.0,57.0,0.0
0.0808116279971392,0.0636582708949266,0.006530519219548,47.0,56.0,0.0
0.0804294602779289,0.0631718735841199,0.0064688980805989,48.0,56.0,0.0
0.0800372475350958,0.0625810601473518,0.0064059609929942,48.0,56.0,0.0
0.0798093357345116,0.0623305488877891,0.0063695300703839,47.0,56.0,0.0
0.0797096293364759,0.0619598518193305,0.0063536250089583,48.0,55.0,0.0
0.0797984675215656,0.0620462176211068,0.0063677954187903,47.0,55.0,0.0
0.0799097893651256,0.0623523845144849,0.0063855744363787,47.0,55.0,0.0
0.0797729318253348,0.0622127298596658,0.0063637206520095,47.0,56.0,0.0
0.079535849405184,0.0619662267747628,0.0063259513406041,48.0,56.0,0.0
0.0792718947153938,0.061641541620746,0.0062840332917684,48.0,55.0,0.0
0.0793254659758337,0.0618856153428289,0.0062925295522831,47.0,55.0,0.0
0.0791210940476229,0.0614147266928763,0.0062601475232927,48.0,56.0,0.0
0.0792938276309018,0.0615422700062791,0.0062875111003591,48.0,56.0,0.0
0.079461212452197,0.0615152846041808,0.0063140842843732,48.0,56.0,0.0
0.0794939224358201,0.0616391535685882,0.0063192837042321,47.0,56.0,0.0
0.0793029159999792,0.061296426692608,0.0062889524860997,48.0,55.0,0.0
0.079739779040525,0.0620860386756885,0.0063584323614317,47.0,55.0,0.0
0.0803671880550785,0.0628393957472947,0.0064588849158803,47.0,55.0,0.0
0.0796976155118621,0.0626078530085474,0.0063517099182766,47.0,56.0,0.0
0.0784696747034299,0.0616830392092895,0.0061574898480621,48.0,56.0,0.0
0.0774023839333405,0.0608734755112913,0.0059911290385642,48.0,57.0,0.0
0.0773895183962422,0.0610077795005165,0.0059891375576023,47.0,55.0,0.0
0.0770879110450713,0.0606010403303555,0.0059425460292928,47.0,56.0,0.0
0.0772094357118813,0.0603054793468352,0.0059612969629471,48.0,55.0,0.0
0.0775369044885688,0.0609010678797077,0.0060119715576694,47.0,56.0,0.0
0.0775735152535832,0.0611186067584548,0.0060176502687979,47.0,56.0,0.0
0.0768649292746333,0.0604313696093298,0.0059082173523943,47.0,56.0,0.0
0.0762932014625894,0.0596444205497042,0.0058206525894112,48.0,57.0,0.0
0.0766082907350858,0.0600556837336777,0.0058688302093514,47.0,57.0,0.0
0.0764671972188567,0.0600023533244721,0.0058472322505075,47.0,56.0,0.0
0.0762624668446849,0.0597352984579432,0.0058159638492366,48.0,56.0,0.0
0.0760178892358675,0.0592879905593664,0.0057787194838766,48.0,56.0,0.0
0.0758604106837886,0.059157125658475,0.005754801909113,47.0,56.0,0.0
0.0757595638118747,0.0587433245150029,0.0057395115089655,48.0,55.0,0.0
0.0758419486261759,0.0589013394759993,0.0057520011714155,47.0,55.0,0.0
0.0759388233074554,0.0592001770227281,0.0057667048853209,47.0,55.0,0.0
0.0757786643813028,0.0590812606050099,0.0057424059754141,47.0,56.0,0.0
0.0755307800544339,0.0588682232530885,0.0057048987356312,48.0,56.0,0.0
0.0752434670112305,0.0584976433788474,0.0056615793278701,48.0,57.0,0.0
0.0752459466187094,0.0586289030739442,0.0056619524825456,47.0,55.0,0.0
0.0751275331072667,0.0582597219990685,0.0056441462307834,48.0,56.0,0.0
0.0754873568479564,0.058401819018306,0.0056983410438907,48.0,56.0,0.0
0.0757296155650237,0.058543694576402,0.0057349746736262,48.0,56.0,0.0
0.0757600637241095,0.0586620291293406,0.0057395872554811,47.0,56.0,0.0
0.0756059827246703,0.0584263251580318,0.0057162646237631,48.0,55.0,0.0
0.0761557598075646,0.0592849418928128,0.0057996997518674,47.0,55.0,0.0
0.0768759003487043,0.0600207633587875,0.0059099040544239,47.0,55.0,0.0
0.0760610994398898,0.0596803994303148,0.0057852908480048,49.0,56.0,0.0
0.0747901251665181,0.0586589818272149,0.0055935628224234,52.0,56.0,0.0
0.0736938878699551,0.0577655117326495,0.0054307891093895,50.0,57.0,0.0
0.0736053552099168,0.0577785347836051,0.005417748315578,49.0,55.0,0.0
0.0733028412102434,0.0573736624340468,0.0053733065294941,50.0,56.0,0.0
0.0735708310852044,0.0574081615659894,0.0054126671865676,51.0,55.0,0.0
0.0740484763534998,0.0580650030897859,0.0054831768502748,51.0,56.0,0.0
0.0740741627601251,0.0581685455213264,0.0054869815886135,51.0,56.0,0.0
0.0733845249703789,0.0574794531209285,0.0053852885051281,49.0,56.0,0.0
0.0729083142228057,0.0568630894324501,0.0053156222828113,50.0,55.0,0.0
0.0733022423142425,0.0573446761657523,0.0053732187282959,49.0,55.0,0.0
0.0730150188070922,0.0572072412811795,0.0053311929714,49.0,56.0,0.0
0.0726415081957907,0.0568429492028184,0.0052767887129591,50.0,56.0,0.0
0.0722545228739819,0.0563315929865932,0.0052207160757467,50.0,56.0,0.0
0.072015399601924,0.0559530038068998,0.0051862177798248,50.0,54.0,0.0
0.0720038681931875,0.0557925380940428,0.0051845570347819,50.0,54.0,0.0
0.0722003591492379,0.0558526489457915,0.0052128918612789,50.0,53.0,0.0
0.0724661666345417,0.0562716164856513,0.0052513453067051,49.0,53.0,0.0
0.0724707526839692,0.0563687721629982,0.005252009994581,49.0,54.0,0.0
0.072386591787704,0.0561711789046211,0.0052398186706397,50.0,53.0,0.0
0.0723103640279215,0.0562170605233355,0.0052287887458505,49.0,53.0,0.0
0.0723620514723567,0.0563173638860106,0.005236266493288,49.0,53.0,0.0
0.0720609561390543,0.0557164398506333,0.0051927813996747,50.0,54.0,0.0
0.0722616064034571,0.0558624292380066,0.0052217397600081,50.0,54.0,0.0
0.0724067622288995,0.0557680358549686,0.0052427392164723,50.0,54.0,0.0
0.072405306816192,0.0557818888058687,0.0052425284551469,49.0,54.0,0.0
0.0722998757461129,0.0556162240095126,0.0052272720329033,50.0,53.0,0.0
0.0728540945063557,0.0563929920610783,0.005307719086341,49.0,53.0,0.0
0.0734904993536263,0.0570816775165889,0.0054008534952453,49.0,53.0,0.0
0.0725459950189052,0.0567169011006499,0.005262921393283,49.0,54.0,0.0
0.0711807921133054,0.0558944767741747,0.0050667051658776,50.0,52.0,0.0
0.0700630686886932,0.055139775741506,0.0049088335940765,50.0,53.0,0.0
0.0699990733409615,0.0552436681981357,0.0048998702685933,49.0,51.0,0.0
0.0696283361463276,0.0548130183024479,0.0048481051945059,50.0,52.0,0.0
0.0699589780518075,0.0546487203923826,0.0048942586100532,50.0,51.0,0.0
0.0705576499958378,0.0553668699702886,0.0049783819729351,49.0,52.0,0.0
0.0706255676515236,0.0555614163187487,0.0049879708060999,49.0,52.0,0.0
0.0697986710383591,0.0548824584560584,0.004871854478721,49.0,52.0,0.0
0.0691801422729508,0.0542367267840673,0.0047858920849057,50.0,53.0,0.0
0.0696219233549777,0.0547693074131202,0.0048472122116464,49.0,53.0,0.0
0.0693340622946605,0.0546188456818223,0.0048072121942798,49.0,52.0,0.0
0.0689920438912369,0.0542396465076539,0.0047599021202903,50.0,52.0,0.0
0.0686260036954008,0.0537341999338239,0.0047095283832011,50.0,52.0,0.0
0.0683846793503678,0.0534224565660536,0.0046764643698526,50.0,54.0,0.0
0.068281971286886,0.0530976685415627,0.0046624276028231,50.0,51.0,0.0
0.0683883845979454,0.053207624250308,0.0046769711479164,49.0,51.0,0.0
0.0685956246594177,0.0535963259415515,0.0047053597224157,49.0,51.0,0.0
0.0684711339629458,0.0535445627173751,0.0046882961861716,49.0,52.0,0.0
0.0682143993839901,0.0532591854568464,0.0046532042833185,50.0,52.0,0.0
0.0679220212819609,0.0529268475426208,0.0046134009750271,49.0,52.0,0.0
0.0679409132895389,0.0529907921555898,0.0046159676986166,49.0,53.0,0.0
0.0677437638690831,0.0525442199298582,0.00458921754315,50.0,56.0,0.0
0.0680802076915316,0.0527724705198322,0.004634914679322,50.0,56.0,0.0
0.0682870642704714,0.0527591864298643,0.0046631231466795,50.0,56.0,0.0
0.0683023496106244,0.0528111899661489,0.0046652109623319,49.0,56.0,0.0
0.0682153202653221,0.0526830819274582,0.0046533299189004,50.0,55.0,0.0
0.0687616791232782,0.0534021082127783,0.0047281685158526,49.0,55.0,0.0
0.0695305396863058,0.0541027302885219,0.0048344959490689,49.0,55.0,0.0
0.0688514495669294,0.0538795889183879,0.0047405221074674,49.0,54.0,0.0
0.0677502298431726,0.0531178379484638,0.0045900936438027,50.0,56.0,0.0
0.0667416623259044,0.0523948328537361,0.004454449490025,50.0,57.0,0.0
0.0666447894077837,0.052410266505301,0.0044415279552078,49.0,53.0,0.0
0.0663876182425581,0.0521826401831607,0.0044073158559196,50.0,54.0,0.0
0.0670815538123574,0.0523362300901136,0.0044999348618802,49.0,53.0,0.0
0.0678050628157919,0.053102929113162,0.0045975265434534,51.0,56.0,0.0
0.0678580601506595,0.0533055824500408,0.0046047163274105,51.0,56.0,0.0
0.0671743275835268,0.052702015363753,0.0045123902862989,52.0,54.0,0.0
0.0667842081934781,0.0522241125669145,0.0044601304640298,52.0,55.0,0.0
0.0674460440119332,0.0528329631646253,0.0045489688528596,49.0,55.0,0.0
0.0672683870061501,0.0527337557972273,0.0045250358904091,49.0,54.0,0.0
0.0671627312934494,0.0526531503885823,0.004510832474796,50.0,56.0,0.0
0.0669562638306997,0.0523470130215616,0.0044831412661662,52.0,56.0,0.0
0.0668113515292816,0.052236313837724,0.0044637566931692,51.0,54.0,0.0
0.0667267032873844,0.0519632034721379,0.0044524529316026,52.0,54.0,0.0
0.0669624668034063,0.0520732993156662,0.0044839719603972,49.0,53.0,0.0
0.0675512589072724,0.0527048185884961,0.0045631725799573,49.0,53.0,0.0
0.0675927457564148,0.0528401960145787,0.0045687792788913,49.0,54.0,0.0
0.0674642835315496,0.0526497700355338,0.0045514295524253,50.0,53.0,0.0
0.067311376767407,0.0524996136072449,0.0045308214423238,50.0,54.0,0.0
0.0673366772594696,0.0525080830467437,0.0045342281043459,51.0,55.0,0.0
0.0672371017663235,0.0521966344238983,0.0045208278539349,52.0,56.0,0.0
0.0678521936621355,0.0526764825219511,0.0046039201847639,52.0,56.0,0.0
0.0682346333023856,0.0528019267206083,0.004655965181911,52.0,56.0,0.0
0.0682638762366918,0.0528988979721744,0.0046599567988583,51.0,54.0,0.0
0.06822320105981,0.0528560576829993,0.0046544051628472,52.0,53.0,0.0
0.068893692270878,0.0536260659288266,0.0047463408347144,51.0,55.0,0.0
0.0699417812389153,0.0544441304178585,0.0048918527628722,51.0,55.0,0.0
0.0694670457418896,0.0543685925085993,0.0048256704441057,51.0,54.0,0.0
0.0686410660740592,0.0537595690537664,0.0047115959517833,52.0,54.0,0.0
0.0678597632133612,0.0531454880488077,0.0046049474633734,52.0,56.0,0.0
0.0677632567576863,0.0531265893534501,0.0045918589664081,51.0,54.0,0.0
0.0675915356285959,0.0530027879000582,0.0045686156886317,52.0,53.0,0.0
0.0687721387027134,0.053446093346533,0.0047296070617452,51.0,53.0,0.0
0.0701035070056796,0.0544891654899513,0.0049145016944953,53.0,54.0,0.0
0.0703320406014388,0.0549361840860232,0.0049465959351624,53.0,54.0,0.0
0.0697556257049159,0.0542848612672647,0.0048658473174843,53.0,54.0,0.0
0.0693750003765569,0.0537535138537864,0.0048128906772472,54.0,55.0,0.0
0.070027557942608,0.0543281039862456,0.0049038588714053,53.0,55.0,0.0
0.0699947711255111,0.0543642338525509,0.0048992679849126,51.0,54.0,0.0
0.0699477648773903,0.0543544543967123,0.0048926898113426,54.0,54.0,0.0
0.069840231310929,0.0542098946600586,0.004877657909564,54.0,56.0,0.0
0.0697741264488533,0.0541177951946256,0.0048684287217005,53.0,54.0,0.0
0.0696975452785379,0.0538958771498484,0.0048577478178538,54.0,54.0,0.0
0.0699701479697295,0.0539200051499648,0.0048958216069058,52.0,53.0,0.0
0.0705881695006217,0.0545629793944327,0.0049826896734485,51.0,53.0,0.0
0.070677300135765,0.0547613973908458,0.004995280754481,51.0,54.0,0.0
0.0706177141729872,0.0546976747194771,0.0049868615550177,52.0,53.0,0.0
0.0705353520992879,0.0545398769139768,0.0049752358957705,52.0,54.0,0.0
0.07054635701917,0.0545842526908463,0.0049767884886762,53.0,55.0,0.0
0.070546180414963,0.0544513657214087,0.0049767635711405,54.0,56.0,0.0
0.0713691308865302,0.0550578751115599,0.0050935528434986,54.0,56.0,0.0
0.0718732284176146,0.0554024120546271,0.0051657609631706,54.0,56.0,0.0
0.0719189218911273,0.055575096360599,0.005172331325982,53.0,56.0,0.0
0.0718954952339296,0.0555420118712554,0.005168962234932,54.0,55.0,0.0
0.072578820179629,0.0562919152256868,0.0052676851386669,53.0,55.0,0.0
0.0736751750212113,0.0572010161784123,0.0054280314144061,53.0,55.0,0.0
0.0733694551472345,0.0571892293686603,0.005383076948602,53.0,56.0,0.0
0.0727730520763615,0.0566881622317053,0.0052959171085088,54.0,56.0,0.0
0.072240968433815,0.0561970005862956,0.0052187575202554,54.0,58.0,0.0
0.0722106803714812,0.0562566270493273,0.0052143823597122,53.0,56.0,0.0
0.0720663381854706,0.0561294556798718,0.0051935570994626,54.0,55.0,0.0
0.0731791192177179,0.0566240664542142,0.0053551834894809,53.0,55.0,0.0
0.0744175799939054,0.0576409236812528,0.0055379762121493,55.0,56.0,0.0
0.0746259290661828,0.05806689197487,0.0055690292889909,55.0,56.0,0.0
0.0741606372278463,0.0574654198980793,0.0054998001140402,55.0,56.0,0.0
0.0738684779139948,0.0570200034518099,0.0054565520293303,56.0,57.0,0.0
0.0744933120563573,0.0575932502454683,0.0055492535411258,53.0,57.0,0.0
0.0745078522349893,0.0576691834876184,0.005551420044671,53.0,56.0,0.0
0.0744746356731697,0.0576567822378376,0.0055464713586513,54.0,56.0,0.0
0.0744164000517821,0.0575787177980038,0.0055378005966668,54.0,56.0,0.0
0.0743808542663326,0.0575402752953033,0.0055325114813894,53.0,56.0,0.0
0.0743074819089205,0.0572782206338663,0.0055216018676445,54.0,56.0,0.0
0.0744694515618945,0.0572257201660523,0.0055456992159293,54.0,55.0,0.0
0.0749425773329415,0.0577830648110852,0.0056163898973039,53.0,55.0,0.0
0.0750083026811597,0.0579636380596327,0.0056262454711084,53.0,56.0,0.0
0.0749672723697431,0.0579301523037802,0.0056200919265592,54.0,55.0,0.0
0.0749057287932269,0.0578185086905804,0.0056108682060444,54.0,56.0,0.0
0.0749201934083375,0.0578519148633244,0.0056130353803427,55.0,57.0,0.0
0.0749028772453431,0.0576719230691927,0.0056104410196309,56.0,58.0,0.0
0.0755000412399976,0.0581540654537815,0.0057002562272413,56.0,58.0,0.0
0.0759109558004957,0.0584560914753355,0.0057624732105448,56.0,58.0,0.0
0.0759500370604244,0.0586118676142116,0.0057684081294798,55.0,58.0,0.0
0.0759482827393532,0.0586307493464379,0.0057681416510567,56.0,57.0,0.0
0.0765043215561709,0.0593502785683068,0.00585291121677,55.0,57.0,0.0
0.0772855197482556,0.06010615782255,0.005973051562758,55.0,57.0,0.0
0.0768899292234996,0.0599468794975361,0.0059120612159947,55.0,58.0,0.0
0.0763973981285691,0.0595376039410184,0.0058365624408151,56.0,58.0,0.0
0.0759785140936993,0.0591416450122223,0.0057727346038864,56.0,60.0,0.0
0.0759867461463432,0.0592977813089517,0.0057739855899088,55.0,58.0,0.0
0.0758275232428572,0.0591005517825203,0.005749813281146,56.0,57.0,0.0
0.0768872700856093,0.059620490203967,0.0059116523012174,55.0,57.0,0.0
0.0781776966750052,0.060678324524203,0.0061117522574091,57.0,57.0,0.0
0.0784125559162457,0.0611162045659433,0.0061485289253183,57.0,58.0,0.0
0.0779177889138457,0.0606182042793848,0.0060711818292226,57.0,58.0,0.0
0.077530363753731,0.0601208489272023,0.0060109573037858,58.0,61.0,0.0
0.0780390241723654,0.0606754801901016,0.006090089293775,57.0,59.0,0.0
0.0779589262455972,0.0605861040514595,0.0060775941813664,57.0,58.0,0.0
0.0779436244939113,0.060601155961041,0.0060752085992478,58.0,58.0,0.0
0.0778675205425842,0.0604798630839619,0.0060633507554497,58.0,58.0,0.0
0.0778225774702898,0.0604112841696389,0.0060563535641192,57.0,58.0,0.0
0.0777404365376869,0.060189338486221,0.0060435754730701,58.0,58.0,0.0
0.0780523201231954,0.0602194119436163,0.0060921646766137,58.0,57.0,0.0
0.0787105596869838,0.0609170006629022,0.0061953522062382,55.0,57.0,0.0
0.0788213087649907,0.061188314568786,0.006212798715426,55.0,58.0,0.0
0.0787608314575218,0.0610603773684144,0.0062032685718801,56.0,58.0,0.0
0.0786805113374838,0.0608382251901925,0.0061906228643279,56.0,60.0,0.0
0.0786863341529674,0.0609407862151743,0.0061915391824324,55.0,61.0,0.0
0.0786929094081743,0.060825250848859,0.0061925739911231,56.0,60.0,0.0
0.0793456534644059,0.0612882274185261,0.0062957327236935,56.0,60.0,0.0
0.0797031705965965,0.0617355227048141,0.0063525954031501,55.0,60.0,0.0
0.079729969539983,0.0618747375600379,0.0063568680428466,55.0,60.0,0.0
0.079695969812727,0.0618196879964814,0.0063514476043911,56.0,59.0,0.0
0.0803968955009258,0.062648038175501,0.0064636608061867,55.0,59.0,0.0
0.0814361583761903,0.0635422275284034,0.0066318478910719,55.0,59.0,0.0
0.0810851489664906,0.0634758380931147,0.0065748013829179,55.0,60.0,0.0
0.0804947560831762,0.0629236702817022,0.00647940575689,56.0,60.0,0.0
0.079990680398773,0.0623494354054633,0.0063985089506586,56.0,61.0,0.0
0.079981928928227,0.0625067177054349,0.0063971089550799,55.0,61.0,0.0
0.0798296809393938,0.0622720199879019,0.0063727779588854,56.0,59.0,0.0
0.0807743283468515,0.0628866305568126,0.0065244921198849,57.0,59.0,0.0
0.0817480267035541,0.0637971381552856,0.0066827398699249,55.0,60.0,0.0
0.0818325087934934,0.064060369045146,0.0066965594954371,55.0,60.0,0.0
0.0812666147338066,0.0633783447003619,0.0066042626702929,56.0,60.0,0.0
0.0809362374249443,0.062945591030834,0.0065506745285069,56.0,63.0,0.0
0.0815685616357448,0.0635776813350117,0.0066534302473242,55.0,61.0,0.0
0.0814964277066983,0.0635357788338109,0.0066416677289531,57.0,60.0,0.0
0.0814512243377175,0.0635151881303904,0.0066343019461131,56.0,60.0,0.0
0.0813708977502231,0.0634094292403857,0.0066212230006772,56.0,60.0,0.0
0.0813201819448963,0.0633699068065396,0.006612971991551,55.0,60.0,0.0
0.081222281876873,0.0630815575132199,0.0065970590732862,56.0,60.0,0.0
0.0814226082790121,0.0630395136647595,0.0066296411389574,58.0,59.0,0.0
0.0819837879609596,0.0637105958941582,0.0067213414884275,55.0,59.0,0.0
0.0820628708347912,0.063943302240266,0.0067343147696476,55.0,60.0,0.0
0.0819819824082487,0.0638104196610789,0.0067210454395864,56.0,60.0,0.0
0.0818781107040975,0.0635696113951829,0.0067040250124724,57.0,62.0,0.0
0.0818668530146263,0.0635936229766554,0.0067021816225184,57.0,63.0,0.0
0.081881426651478,0.0634820259720988,0.0067045680304813,58.0,62.0,0.0
0.0825530974934179,0.0640001280611146,0.0068150139057577,58.0,62.0,0.0
0.082946459532591,0.0644365650816907,0.0068801151489917,58.0,62.0,0.0
0.082982293049543,0.0646052780939288,0.0068860609597602,57.0,62.0,0.0
0.0829864784250975,0.0646326890094812,0.0068867556013991,58.0,61.0,0.0
0.0837216086234178,0.0654934419016954,0.0070093077504927,57.0,61.0,0.0
0.0847797537172218,0.0664822397291433,0.0071876066403527,57.0,63.0,0.0
0.0844513478654927,0.0663227340220065,0.0071320301562984,57.0,62.0,0.0
0.0839682132181476,0.0659157994758907,0.0070506608310483,58.0,62.0,0.0
0.0835994007563699,0.065387895789097,0.0069888598068241,58.0,63.0,0.0
0.0836111914820683,0.0656173201220074,0.0069908313410511,57.0,62.0,0.0
0.0834663745894994,0.0653340233295263,0.0069666356871146,58.0,61.0,0.0
0.084415914441266,0.0660802293421707,0.0071260466109551,59.0,61.0,0.0
0.085468915436302,0.0670318257603348,0.0073049355058577,57.0,61.0,0.0
0.0855442131392128,0.0672689605433417,0.007317812401607,57.0,62.0,0.0
0.0849331799240138,0.0665791259234897,0.0072136450520049,57.0,62.0,0.0
0.084509518667193,0.0660790280598086,0.0071418587453606,58.0,63.0,0.0
0.0850521865472458,0.0666862703232917,0.0072338744364675,57.0,61.0,0.0
0.0849599037057164,0.0666119365253172,0.0072181852376846,57.0,62.0,0.0
0.0848594209025709,0.0664936204245367,0.0072011213159197,58.0,62.0,0.0
0.0847569740701772,0.0663109533802455,0.0071837446535327,58.0,62.0,0.0
0.0847130368332506,0.0662506184210938,0.0071762986095116,57.0,62.0,0.0
0.0846070283004407,0.0659923203179512,0.0071583492378315,58.0,64.0,0.0
0.0848133744921174,0.0659447721761537,0.0071933084927401,60.0,61.0,0.0
0.0853119793731982,0.0666106748993823,0.007278133824573,57.0,61.0,0.0
0.0853466700670066,0.0668293606862927,0.0072840540915264,57.0,62.0,0.0
0.0852585650644088,0.0666833381843324,0.007269022916842,58.0,62.0,0.0
0.0851405227974625,0.0663756786616648,0.0072489086222252,58.0,62.0,0.0
0.0851035748115628,0.0663897514812386,0.0072426184457072,57.0,63.0,0.0
0.08511935627834,0.0663255750081254,0.0072453048132389,58.0,62.0,0.0
0.0857014842150063,0.0668064939087837,0.0073447443966549,58.0,61.0,0.0
0.0860573402567034,0.0673681812470221,0.007405865812058,57.0,62.0,0.0
0.0860850604135512,0.0675128597308764,0.0074106376264047,57.0,62.0,0.0
0.0860775919444216,0.0675208339028178,0.0074093518349503,58.0,61.0,0.0
0.0866719762365271,0.0682985969269762,0.0075120314647451,57.0,61.0,0.0
0.0874439648896504,0.0691598760271241,0.0076464469956224,57.0,63.0,0.0
0.0870201212337859,0.0687557006672401,0.0075725014995427,57.0,62.0,0.0
0.0866204572117113,0.0684247580452301,0.0075031036075659,58.0,62.0,0.0
0.0863379983840232,0.0680413982543715,0.0074542499649595,58.0,63.0,0.0
0.0863508154515179,0.0682337414743689,0.0074564633291421,55.0,62.0,0.0
0.0862503640716209,0.0679944292238033,0.0074391253024871,58.0,61.0,0.0
0.0872867769014018,0.0688309457194872,0.007618981421835,57.0,61.0,0.0
0.0883920170705432,0.0698052800170952,0.0078131486817992,57.0,61.0,0.0
0.0884144464527838,0.0699222229396425,0.0078171143415521,57.0,62.0,0.0
0.0877621707087147,0.0692412128027585,0.0077021986075055,56.0,62.0,0.0
0.0873819871198124,0.0689182638233339,0.007635611673007,56.0,61.0,0.0
0.0879248721212527,0.069598389807332,0.0077307831375386,55.0,61.0,0.0
0.0877069383059252,0.0693090555267231,0.0076925070269993,55.0,62.0,0.0
0.0877599271895783,0.0692466635240228,0.00770180482032,56.0,62.0,0.0
0.0877751056218029,0.0692711248101628,0.0077044691669186,58.0,62.0,0.0
0.0877604249288661,0.0694266492640334,0.0077018921836951,57.0,62.0,0.0
0.0875066171437239,0.0688654141233782,0.0076574080439382,56.0,61.0,0.0
0.0876015028553117,0.0688192400772962,0.0076740233025091,57.0,61.0,0.0
0.0882476770326008,0.0695747009554434,0.0077876525016502,57.0,61.0,0.0
0.0881723670140572,0.0697313105911492,0.0077743663048616,55.0,62.0,0.0
0.0879370749235238,0.0694065419088676,0.0077329291461054,56.0,62.0,0.0
0.087609016989826,0.0689482970879631,0.0076753398579236,57.0,62.0,0.0
0.0874101749028411,0.068630906376662,0.0076405386765452,54.0,61.0,0.0
0.0874286877823916,0.0684972855639883,0.0076437754473509,54.0,61.0,0.0
0.0879841030865628,0.0690882685065628,0.0077412023959469,53.0,61.0,0.0
0.0883739119222887,0.0696829283978109,0.0078099483084484,53.0,62.0,0.0
0.0883500704068886,0.0697141428896159,0.0078057349409021,53.0,62.0,0.0
0.0882716981359897,0.0695531536654211,0.0077918926918112,54.0,61.0,0.0
0.0884654050205901,0.0700809424705859,0.007826127885457,53.0,61.0,0.0
0.0889246354547646,0.0707423955765096,0.0079075907907627,53.0,63.0,0.0
0.0883871335583168,0.070194555027256,0.0078122853786557,53.0,62.0,0.0
0.088144310683961,0.0700527260982514,0.0077694195059506,54.0,62.0,0.0
0.0879174839016757,0.0695945913880199,0.0077294839756014,54.0,62.0,0.0
0.0878424637415863,0.0697401566977208,0.0077162984361919,53.0,62.0,0.0
0.0877369854197724,0.0694819412320865,0.0076977786105493,54.0,61.0,0.0
0.0889177640104538,0.0704990610669835,0.0079063687566187,53.0,61.0,0.0
0.0903905115493256,0.0716263948733898,0.0081704445781487,53.0,61.0,0.0
0.0903352693173764,0.0717082785763226,0.0081604608826429,53.0,62.0,0.0
0.0893706453138106,0.070871281226007,0.0079871122438069,53.0,62.0,0.0
0.0886065608675268,0.0702371269298947,0.0078511226287707,54.0,61.0,0.0
0.0889174132011015,0.0707044008773895,0.0079063063703754,53.0,61.0,0.0
0.0885980837412661,0.0702569279496403,0.0078496204426244,53.0,62.0,0.0
0.0886375454165307,0.0702240279431191,0.0078566144574675,54.0,62.0,0.0
0.08863186876554,0.0702119062714687,0.0078556081608719,54.0,62.0,0.0
0.08859917532717,0.0702736891873787,0.0078498138686546,53.0,62.0,0.0
0.0883705027058282,0.0698241852331877,0.0078093457484807,54.0,61.0,0.0
0.0884612621480335,0.0696958313294871,0.0078253949008231,53.0,61.0,0.0
0.0891609137467787,0.0704550423958683,0.0079496685401605,53.0,61.0,0.0
0.0891380962160614,0.0706303739555931,0.0079456001970238,53.0,62.0,0.0
0.0889449145284922,0.0703732367913358,0.0079111978204807,54.0,62.0,0.0
0.0886920182241174,0.0699284097312563,0.0078662740966671,55.0,62.0,0.0
0.0885699708825556,0.0698653640160056,0.0078446397421367,54.0,61.0,0.0
0.0885837254966045,0.0697214875352741,0.0078470764228577,54.0,61.0,0.0
0.0891214598648565,0.0701925382852453,0.0079426346084432,53.0,61.0,0.0
0.0895944501746935,0.0708336098871547,0.0080271655021056,53.0,62.0,0.0
0.0896147130949583,0.0709562931285897,0.0080307968030916,53.0,62.0,0.0
0.0894734073514903,0.0706519591736336,0.0080054906230857,52.0,61.0,0.0
0.0894707882945852,0.0709949574445276,0.0080050219580544,53.0,61.0,0.0
0.0896494233107665,0.0714512694937936,0.008037019099953,53.0,63.0,0.0
0.0890102072784657,0.0707251055645611,0.0079228169997554,51.0,62.0,0.0
0.0887462242034054,0.0705599190747297,0.0078758923103611,52.0,60.0,0.0
0.0884749160011717,0.070165794094341,0.0078278107614143,52.0,60.0,0.0
0.0883732988970356,0.0702262245309181,0.0078098399579448,51.0,60.0,0.0
0.0882872434474434,0.0700374168808998,0.0077946373555481,52.0,59.0,0.0
0.0894651749101959,0.0709834991933678,0.0080040175217119,51.0,59.0,0.0
0.0909613267947418,0.0721156120276345,0.0082739629722598,51.0,59.0,0.0
0.0909336319815145,0.0722535390956607,0.0082689254253495,51.0,60.0,0.0
0.0899986604037018,0.0713266746576353,0.0080997588744608,52.0,60.0,0.0
0.0892582998644006,0.0706998825848872,0.0079670440946832,52.0,59.0,0.0
0.0895386985051823,0.0711476740600274,0.0080171785300019,51.0,59.0,0.0
0.0891915008030363,0.0706389900861189,0.007955123815498,51.0,60.0,0.0
0.0893752334633586,0.0707365536299853,0.0079879323566298,52.0,60.0,0.0
0.0895031672525654,0.0708943698672978,0.0080108169482407,52.0,60.0,0.0
0.089506262873941,0.0710200131562836,0.008011371093659,51.0,60.0,0.0
0.0892804494984035,0.0705973734898083,0.0079709986626369,51.0,62.0,0.0
0.0893158208396797,0.0703242605333737,0.0079773158522657,51.0,59.0,0.0
0.089989408537586,0.0710949596583385,0.0080980936489445,51.0,59.0,0.0
0.0900029851325879,0.0713302525111285,0.0081005373327768,51.0,60.0,0.0
0.0898762907034126,0.0711522038157028,0.0080777476306043,52.0,60.0,0.0
0.0896807165571524,0.0707618945283911,0.0080426309222043,53.0,60.0,0.0
0.0895672933397908,0.0706626100866765,0.0080223000362161,52.0,59.0,0.0
0.0895770487755532,0.0705564841407024,0.0080240476673378,52.0,59.0,0.0
0.0900764969558666,0.0710479937806196,0.0081137753038402,51.0,59.0,0.0
0.0905324561899613,0.0716827218870063,0.0081961256237872,51.0,59.0,0.0
0.0905533300617905,0.071798228992871,0.0081999055852795,51.0,60.0,0.0
0.0904562742223276,0.0715520618435527,0.0081823375461849,52.0,59.0,0.0
0.090455558380778,0.0718336376584276,0.0081822080419783,51.0,59.0,0.0
0.0906379395424031,0.0722774215760744,0.0082152360844923,51.0,59.0,0.0
0.0901317765705881,0.0715822329301338,0.0081237371477704,51.0,60.0,0.0
0.0900723696343379,0.071618063836274,0.0081130317715448,52.0,62.0,0.0
0.0899929546640238,0.0712200827618455,0.008098731889161,52.0,62.0,0.0
0.0899548509015893,0.0713735871695559,0.0080918752007271,51.0,62.0,0.0
0.0898373409980795,0.0711587213641319,0.0080707478376052,52.0,61.0,0.0
0.0908391125858148,0.072128438168242,0.0082517443753783,51.0,61.0,0.0
0.0922180318045676,0.0732405264882672,0.0085041653899082,51.0,61.0,0.0
0.0921010524890046,0.0733322986024655,0.0084826038695823,51.0,62.0,0.0
0.0910716013298354,0.0724039953565988,0.0082940365687804,52.0,62.0,0.0
0.0901727763946317,0.0715394708134027,0.0081311296027162,52.0,61.0,0.0
0.090361801909808,0.0718972321342217,0.0081652552443873,51.0,61.0,0.0
0.0900762858627831,0.0714463069770444,0.0081137372748338,51.0,60.0,0.0
0.090367816837748,0.0716965046781121,0.0081663423200207,52.0,62.0,0.0
0.0905823074013538,0.0719288926325111,0.0082051544141533,52.0,62.0,0.0
0.090584102450635,0.0721665008605512,0.0082054796167871,51.0,62.0,0.0
0.0903901613384259,0.0716833682328449,0.0081703812667866,51.0,59.0,0.0
0.0904647179671986,0.071607634703511,0.0081838651968847,51.0,61.0,0.0
0.0910717288872229,0.0723367027786594,0.0082940598025078,51.0,61.0,0.0
0.0909561715822941,0.0723861613316281,0.0082730251489077,51.0,62.0,0.0
0.0907675577824541,0.0722521889799795,0.0082387495457911,52.0,62.0,0.0
0.0904542222283831,0.0716686904183166,0.0081819663189417,53.0,62.0,0.0
0.090342160173076,0.0715426121855776,0.0081617059047377,52.0,62.0,0.0
0.0903324725135748,0.0714018561752966,0.0081599555904157,52.0,60.0,0.0
0.0908974559633477,0.0717675892279881,0.0082623475006087,52.0,60.0,0.0
0.0915874112457192,0.0724719117049367,0.0083882538986925,51.0,59.0,0.0
0.091686933073454,0.0727535880212868,0.008406493696416,51.0,60.0,0.0
0.0915832006949491,0.0725208734118223,0.0083874826495313,52.0,59.0,0.0
0.0915237075338804,0.072704391074762,0.0083765890407472,51.0,59.0,0.0
0.0915256912960717,0.0729821630899198,0.0083769521672238,51.0,61.0,0.0
0.090905832907927,0.0722365716818054,0.0082638704566839,52.0,60.0,0.0
0.0907588474771116,0.072156137423979,0.0082371683953736,50.0,60.0,0.0
0.0904808051529963,0.0717706974707376,0.0081867761011344,50.0,62.0,0.0
0.0903598780648584,0.0717684164573324,0.008164907563896,49.0,60.0,0.0
0.0902674509511381,0.0715964052132714,0.0081482127012161,50.0,59.0,0.0
0.0912905144140433,0.0724902633941096,0.0083339580219806,51.0,59.0,0.0
0.0927640096637544,0.0736676305836999,0.0086051614888971,49.0,59.0,0.0
0.092812286740511,0.0738720672274369,0.0086141205700028,49.0,60.0,0.0
0.0918848772419164,0.0729469793406996,0.008442830665762,50.0,60.0,0.0
0.091108262594107,0.0722007282397353,0.0083007155129167,50.0,59.0,0.0
0.0912514081603841,0.0725093416376679,0.008326819491253,49.0,59.0,0.0
0.0909281432452845,0.0720851188084525,0.0082679272340349,50.0,60.0,0.0
0.0913390735514563,0.0723537629117664,0.0083428263572383,50.0,60.0,0.0
0.0916795897245964,0.0727310579286294,0.0084051471720703,50.0,60.0,0.0
0.0917488820058212,0.073021152764331,0.0084178573493181,49.0,60.0,0.0
0.0914670171924967,0.0725100882583288,0.0083662152340924,49.0,60.0,0.0
0.0914409779503815,0.0721378104266402,0.0083614524485221,49.0,59.0,0.0
0.092069182286001,0.0728887949626952,0.0084767343268128,49.0,59.0,0.0
0.0919879643012205,0.073049045360649,0.0084617855762826,49.0,60.0,0.0
0.0918079574687811,0.0728973177864333,0.0084287010545895,50.0,60.0,0.0
0.0914979038046279,0.0723794793590228,0.0083718664006409,51.0,60.0,0.0
0.0913396515291439,0.0721742055065548,0.0083429319414654,50.0,58.0,0.0
0.0913566681109807,0.0720835514124298,0.0083460408083398,50.0,58.0,0.0
0.0918723845599056,0.0724701084013877,0.0084405350447231,49.0,57.0,0.0
0.0924919846428288,0.0732008035542187,0.0085547672231692,49.0,57.0,0.0
0.0925699799676101,0.0734165246049343,0.0085692011912037,49.0,58.0,0.0
0.0924573296749146,0.0731346823928919,0.0085483578106158,50.0,57.0,0.0
0.0923765663053892,0.0732751705998474,0.0085334300023739,49.0,57.0,0.0
0.0923542638941743,0.0734923974974545,0.0085293100594347,49.0,59.0,0.0
0.0917290892112103,0.0728110817775762,0.0084142258075181,50.0,58.0,0.0
0.0915385728803239,0.0726682786596852,0.0083793103249663,50.0,58.0,0.0
0.091301085128969,0.0722117892692234,0.0083358881457272,50.0,58.0,0.0
0.0912132467050949,0.0722887580540336,0.0083198563744845,51.0,58.0,0.0
0.0910751007941114,0.0720778234989125,0.0082946739846575,50.0,57.0,0.0
0.0918749143824376,0.0728554139379094,0.0084409998927802,49.0,57.0,0.0
0.093107380810577,0.0739596184947843,0.0086689843614058,49.0,57.0,0.0
0.0930392540236736,0.0741368521286346,0.0086563027892816,49.0,58.0,0.0
0.0920821928152855,0.0732947109580585,0.0084791302336714,50.0,58.0,0.0
0.0912290681857725,0.0724814405619312,0.0083227428820443,50.0,59.0,0.0
0.0913134891135289,0.0727157856178898,0.0083381532940865,49.0,57.0,0.0
0.0910118835850931,0.0723301350914287,0.0082831629537065,50.0,58.0,0.0
0.0915006746281124,0.072672505044654,0.0083723734573996,50.0,58.0,0.0
0.0919393429408171,0.0731260193124373,0.0084528427803891,50.0,58.0,0.0
0.0920004695455779,0.073369430602667,0.0084640863966068,49.0,58.0,0.0
0.0917709529949481,0.0729457325811699,0.0084219078136009,49.0,58.0,0.0
0.0917926187599009,0.0726524693063131,0.0084258848588005,50.0,57.0,0.0
0.0924441964176908,0.0734027265331159,0.0085459294513126,49.0,57.0,0.0
0.092421698154748,0.0735396256294888,0.0085417702898073,49.0,58.0,0.0
0.0922763004996084,0.0734050247375591,0.008514915633894,50.0,58.0,0.0
0.0920422303912704,0.0729065540988569,0.0084717721753997,51.0,58.0,0.0
0.0919640672421394,0.0728147572987828,0.0084573896637167,52.0,58.0,0.0
0.0919360750802844,0.0726459598036747,0.0084522419011676,50.0,56.0,0.0
0.0922970574091344,0.0728312647332116,0.008518746806385,50.0,55.0,0.0
0.09276763632875,0.0734525151267309,0.0086058343500232,49.0,55.0,0.0
0.0928208142195795,0.0736438540229248,0.0086157035523856,49.0,56.0,0.0
0.0927117084614679,0.0734092317349246,0.0085954608858442,52.0,55.0,0.0
0.0926141308305495,0.0735510242566911,0.0085773772294981,51.0,55.0,0.0
0.0926174897593059,0.0737283575954848,0.0085779994093151,49.0,57.0,0.0
0.0921121744161145,0.0729511118205058,0.0084846526756647,50.0,56.0,0.0
0.0921109873319521,0.0729315046129887,0.008484433987267,52.0,56.0,0.0
0.0920328954200935,0.0725156666411975,0.0084700538394058,52.0,56.0,0.0
0.0919892528363427,0.0726662491540086,0.0084620226373885,51.0,56.0,0.0
0.0918240500356415,0.072417671992111,0.0084316561649479,52.0,55.0,0.0
0.0925420120562167,0.0732107306417738,0.0085640239954129,49.0,55.0,0.0
0.0937047767665428,0.0742688488417704,0.0087805851888676,51.0,55.0,0.0
0.0935773364433834,0.074397175816742,0.0087567178958381,51.0,56.0,0.0
0.0924286978703212,0.0734381379681448,0.0085430641900031,50.0,56.0,0.0
0.0914367552665932,0.0726133046111986,0.0083606802136828,50.0,55.0,0.0
0.091477589798261,0.0728197275359094,0.0083681494352989,49.0,55.0,0.0
0.0911746342734862,0.0724124522784023,0.0083128139349039,50.0,56.0,0.0
0.0915920300160835,0.0724743807230089,0.0083890999624671,50.0,56.0,0.0
0.091961102367894,0.0728852000906252,0.0084568443487182,50.0,56.0,0.0
0.0920378176885739,0.0731930813383139,0.0084709598848751,49.0,56.0,0.0
0.0915878033966502,0.0725554455469077,0.0083883257310234,49.0,55.0,0.0
0.0914511715516185,0.0722087557454179,0.0083633167781635,49.0,55.0,0.0
0.092098870568947,0.0729525605562683,0.0084822019600756,49.0,55.0,0.0
0.091914453425412,0.0729460360943535,0.0084482667484922,49.0,54.0,0.0
0.0916770820825277,0.0726710102318925,0.0084046873791665,50.0,56.0,0.0
0.0913100209397295,0.0721079394179569,0.0083375199240138,50.0,56.0,0.0
0.0910714165794957,0.0717499347787384,0.008294002917796,50.0,54.0,0.0
0.0910458086438816,0.071506443707133,0.0082893392716183,50.0,53.0,0.0
0.091459309949877,0.0719656863185291,0.0083648053765076,49.0,53.0,0.0
0.0919198430604675,0.0725837200865821,0.0084492575482609,49.0,53.0,0.0
0.0918590347071954,0.0725750133998189,0.0084380822573377,49.0,54.0,0.0
0.0916854011375841,0.0723455735800358,0.0084062127817597,50.0,53.0,0.0
0.0914974755134425,0.0722861781758957,0.008371788025333,49.0,54.0,0.0
0.0915947453168292,0.0725503170052472,0.0083895973696548,49.0,55.0,0.0
0.0912635327295637,0.0718527317552203,0.0083290324062801,50.0,56.0,0.0
0.0916058497590376,0.0720693717531239,0.0083916317100753,50.0,56.0,0.0
0.0918530542917676,0.0720470043644091,0.0084369835827264,50.0,56.0,0.0
0.0918535278027408,0.072157933721893,0.0084370705698088,49.0,56.0,0.0
0.091739378164511,0.0719489518764196,0.0084161135060111,50.0,55.0,0.0
0.0925234616162442,0.0729295557586752,0.0085605909494526,49.0,55.0,0.0
0.0936874095102662,0.0739418499428728,0.0087773307007443,49.0,55.0,0.0
0.0931721461000945,0.0738306305382957,0.0086810488088973,49.0,56.0,0.0
0.0919645251307303,0.0728291666243492,0.0084574738825207,50.0,56.0,0.0
0.0908964169025555,0.0720019600698775,0.0082621586057231,50.0,55.0,0.0
0.0908516876623114,0.072136869698521,0.0082540291510901,49.0,55.0,0.0
0.0905947321577348,0.0717882277174779,0.0082074054947317,50.0,54.0,0.0
0.0912239078783366,0.0719689259792373,0.0083218013685952,50.0,56.0,0.0
0.0918319954200651,0.0726049147820848,0.0084331153828308,50.0,56.0,0.0
0.0919672622183231,0.0730118195135224,0.0084579773199338,49.0,56.0,0.0
0.0914917591439634,0.0724002260413984,0.008370741991257,49.0,53.0,0.0
0.0913133747609777,0.0720356825655961,0.0083381324102387,49.0,55.0,0.0
0.0919843341929342,0.0727829447097221,0.0084611177369174,49.0,55.0,0.0
0.0918056238724276,0.0727612757844028,0.0084282725746056,49.0,54.0,0.0
0.0916281198739849,0.0725424361081062,0.0083957123516413,50.0,56.0,0.0
0.0912946469618292,0.0720074665498828,0.008334712563885,50.0,56.0,0.0
0.0910800446224143,0.0717610513877994,0.0082955745284209,50.0,54.0,0.0
0.0910580346257464,0.0714941352022612,0.0082915656699036,50.0,53.0,0.0
0.0916034761243776,0.0721221941979083,0.0083911968380694,49.0,53.0,0.0
0.0922660960091313,0.0728716608273541,0.0085130324727662,49.0,53.0,0.0
0.0922474675664011,0.0729200898822584,0.0085095952724142,49.0,54.0,0.0
0.0920340242116531,0.0726634410797028,0.0084702616125911,50.0,54.0,0.0
0.0917989368285563,0.0723008789693258,0.0084270448028532,50.0,53.0,0.0
0.0918509711154255,0.0725461517430705,0.0084366008948467,49.0,53.0,0.0
0.0916408230000255,0.0720437043145547,0.008398040440122,50.0,54.0,0.0
0.0919741702170695,0.072298894012584,0.0084592479871184,50.0,54.0,0.0
0.0922407319086905,0.0724363243873629,0.0085083526230509,50.0,54.0,0.0
0.0922502722024361,0.0725118446218957,0.0085101127214235,49.0,54.0,0.0
0.0921922840491577,0.0723547550208041,0.0084994172382005,50.0,53.0,0.0
0.0928620434659941,0.0732952104000383,0.0086233591166801,49.0,53.0,0.0
0.0937879715023398,0.0742661328101782,0.0087961835985237,49.0,53.0,0.0
0.0932106729941559,0.0739825473453324,0.0086882295600234,49.0,54.0,0.0
0.0921328222560759,0.0731686898095897,0.0084884569368696,50.0,54.0,0.0
0.0912704225062668,0.0724521156960798,0.0083302900244724,50.0,53.0,0.0
0.0912350058544653,0.0725652413783021,0.0083238262932643,49.0,54.0,0.0
0.090952330522515,0.0722549413121299,0.0082723264274768,50.0,52.0,0.0
0.0917116223168864,0.0723971303871727,0.0084110216679952,50.0,53.0,0.0
0.092591019866256,0.0732817696246214,0.0085730969598734,49.0,54.0,0.0
0.0927948074733187,0.0737211743814623,0.0086108762940102,49.0,54.0,0.0
0.0922137515850854,0.0731060985318686,0.0085033759813958,49.0,52.0,0.0
0.0918850441347183,0.072593696287964,0.0084428613356391,49.0,53.0,0.0
0.0924553258620753,0.0733007360812005,0.0085479872802625,49.0,53.0,0.0
0.0922167640382865,0.0731769593726877,0.008503931569693,49.0,52.0,0.0
0.0920222782411378,0.0729537564671397,0.0084680996926893,50.0,54.0,0.0
0.091657930704246,0.0724325053220609,0.0084011762609843,50.0,54.0,0.0
0.0914310658965537,0.0721496904222041,0.0083596398109799,50.0,52.0,0.0
0.0913921468935523,0.0718733178740005,0.0083525245138126,50.0,51.0,0.0
0.0918631484523082,0.0724184728495063,0.0084388380435708,49.0,51.0,0.0
0.092557527064522,0.0731976948503698,0.0085668958162997,49.0,51.0,0.0
0.0925811514617784,0.0732775827019736,0.0085712696059887,49.0,52.0,0.0
0.0923598244195823,0.0729632985412896,0.008530337166816,50.0,52.0,0.0
0.0921233473319152,0.0725391740857145,0.0084867111236366,51.0,52.0,0.0
0.0921260365828022,0.0725616794081701,0.0084872066164558,51.0,53.0,0.0
0.091973771665672,0.0722166869309248,0.0084591746744091,52.0,54.0,0.0
0.0924932723257239,0.0725663836108645,0.0085550054255205,52.0,54.0,0.0
0.0928934865175773,0.0728720216208551,0.0086291998373913,52.0,54.0,0.0
0.0929158509896255,0.0730012051648189,0.0086333553651262,51.0,54.0,0.0
0.0928031086296773,0.0727451799420278,0.0086124169713316,52.0,53.0,0.0
0.0932989761404525,0.0735767636957924,0.0087046989488567,51.0,53.0,0.0
0.0941119607209222,0.074463303625379,0.0088570611507364,51.0,53.0,0.0
0.0935035428063253,0.0742083435558901,0.0087429125173343,51.0,54.0,0.0
0.0924795244826993,0.073392323819081,0.0085524624485461,52.0,54.0,0.0
0.0916407642171084,0.0726033405260895,0.0083980296662956,52.0,55.0,0.0
0.0915419215005216,0.0725915817932175,0.0083799233920076,51.0,54.0,0.0
0.0913179548408245,0.0724133307355619,0.0083389688763108,52.0,54.0,0.0
0.092211199331062,0.0726625918208587,0.0085029052820728,52.0,53.0,0.0
0.0932370393940659,0.0737426302959812,0.0086931455149706,49.0,54.0,0.0
0.0934420746549295,0.0741298399324404,0.0087314213158174,49.0,54.0,0.0
0.0927789348470719,0.0734721576379486,0.0086079307513572,49.0,54.0,0.0
0.0922899739661067,0.0727555344200368,0.0085174392946646,49.0,55.0,0.0
0.0927668047347832,0.0734183613136813,0.0086056800607014,49.0,55.0,0.0
0.0925464445869678,0.0732818392655639,0.0085648444056887,49.0,54.0,0.0
0.0924031080418366,0.0731729524811302,0.0085383343757913,50.0,54.0,0.0
0.0921075346257127,0.0726975822978189,0.0084837979348268,50.0,54.0,0.0
0.0919262223569697,0.0725156312325567,0.008450430356823,50.0,54.0,0.0
0.0918387153770563,0.0721397124120315,0.0084343496421079,50.0,53.0,0.0
0.0921436589203441,0.072659201679343,0.0084904538792287,51.0,53.0,0.0
0.0925491559997779,0.0732798681144381,0.0085653462762712,51.0,53.0,0.0
0.0923666489522195,0.073204832487919,0.0085315978386625,51.0,54.0,0.0
0.0920106637957133,0.0728055886023738,0.0084659622521278,52.0,54.0,0.0
0.0915846139096169,0.072090085458851,0.0083877415049736,53.0,56.0,0.0
0.0915080635341446,0.0719861031905191,0.008373725691769,53.0,57.0,0.0
0.091430158906222,0.0717888279511211,0.008359473957617,54.0,56.0,0.0
0.0920987577096741,0.0721065966679021,0.0084821811716652,54.0,55.0,0.0
0.0925428282744901,0.0727272455791277,0.0085641750650417,53.0,56.0,0.0
0.0925619427768245,0.072833803231428,0.0085677132506201,53.0,56.0,0.0
0.092378857671748,0.0724058875636007,0.008533853344737,54.0,55.0,0.0
0.0927707272610765,0.0731851939193436,0.008606407836549,53.0,55.0,0.0
0.0935720634988245,0.0740737163823304,0.008755731067428,53.0,55.0,0.0
0.0929176623286425,0.0737500528603293,0.0086336919726196,53.0,56.0,0.0
0.0919580170166664,0.0730249033060095,0.0084562768936375,54.0,56.0,0.0
0.0911594628290019,0.0722134178703507,0.0083100476632721,54.0,57.0,0.0
0.0910699385518566,0.072233179326757,0.0082937337078389,53.0,56.0,0.0
0.0908452427733284,0.0720175013138657,0.0082528581345449,54.0,56.0,0.0
0.0916574478590446,0.072315301710728,0.0084010877480334,54.0,55.0,0.0
0.0925844702681054,0.0733448655939845,0.0085718841348256,51.0,56.0,0.0
0.092715714986748,0.0736329310247135,0.0085962038055038,51.0,56.0,0.0
0.092014527580543,0.072873855295578,0.0084666732858705,51.0,56.0,0.0
0.0915616775637036,0.0722986305294555,0.0083835407982796,51.0,57.0,0.0
0.0920860113720903,0.0729753034248138,0.0084798334904207,51.0,57.0,0.0
0.0918393329352097,0.0727682550674678,0.0084344630739843,51.0,56.0,0.0
0.0916873702951067,0.0726365573383684,0.008406573871632,52.0,56.0,0.0
0.091377774524406,0.0721850785079576,0.0083498976770331,52.0,56.0,0.0
0.0911960516603225,0.0719563891750673,0.0083167198384322,51.0,56.0,0.0
0.091103500553546,0.0715603434607673,0.0082998478131099,52.0,55.0,0.0
0.0913936484036467,0.0720848713389877,0.0083527989685293,53.0,55.0,0.0
0.0918808355785124,0.072747765585673,0.0084420879466056,53.0,55.0,0.0
0.0917430766501242,0.0727142890569824,0.0084167921132305,53.0,56.0,0.0
0.0914350106994153,0.0723173047230021,0.0083603611816021,54.0,56.0,0.0
0.0910749581777894,0.0716354868651353,0.008294648007086,55.0,58.0,0.0
0.090999069725547,0.0715088228398776,0.0082808306909149,55.0,59.0,0.0
0.0909531945492399,0.0713884994620843,0.0082724835987118,56.0,58.0,0.0
0.0917836024753486,0.0718662342678439,0.0084242296833528,56.0,57.0,0.0
0.0922885075645157,0.0725326623071045,0.0085171686284856,55.0,58.0,0.0
0.0923034448906491,0.0726257217667697,0.0085199259386811,55.0,58.0,0.0
0.0921628316241262,0.0722809237659533,0.008493987532977,56.0,57.0,0.0
0.0927125675294585,0.073135126708659,0.0085956201779044,55.0,57.0,0.0
0.093841130575593,0.0742056206599648,0.0088061577877054,55.0,57.0,0.0
0.0933639525690831,0.0738533846192393,0.008716827639322,55.0,58.0,0.0
0.0925246235030803,0.073246975441615,0.0085608059543867,56.0,58.0,0.0
0.0918867100857332,0.0724319659817579,0.0084431674903795,56.0,60.0,0.0
0.0918157256679251,0.0724352720399101,0.0084301274799276,55.0,56.0,0.0
0.091625705231929,0.0722884855242958,0.0083952698592483,56.0,58.0,0.0
0.0925473071183261,0.0727874778548871,0.0085650040548537,55.0,57.0,0.0
0.0935458207524987,0.0738561313405734,0.0087508205802586,53.0,58.0,0.0
0.0936550235035612,0.0741027409373253,0.0087712634274526,53.0,58.0,0.0
0.0929433087793722,0.0733138524315442,0.0086384586468577,53.0,56.0,0.0
0.0925254618214707,0.0728332512517893,0.0085609610852764,53.0,59.0,0.0
0.0931011242247094,0.0735416729422214,0.0086678193319047,53.0,59.0,0.0
0.0927990305259722,0.0732990674881895,0.0086116600665603,55.0,56.0,0.0
0.0925465301654067,0.0730614522145163,0.0085648602456565,54.0,60.0,0.0
0.0922033081010543,0.0725329624200069,0.0085014500247779,54.0,60.0,0.0
0.0920283659369618,0.0723212535660274,0.0084692201370273,54.0,58.0,0.0
0.0919576722490783,0.0720051266415289,0.0084562134854689,54.0,57.0,0.0
0.0924101432320948,0.0725882647423648,0.0085396345721762,55.0,57.0,0.0
0.0930584734567971,0.0733420985676026,0.0086598794821094,55.0,59.0,0.0
0.0929854287561648,0.0733854064192603,0.0086462899609678,55.0,60.0,0.0
0.092758307053951,0.0730674754188245,0.008604103527515,56.0,60.0,0.0
0.092488563957823,0.0724707359177171,0.0085541344629803,56.0,60.0,0.0
0.0924466318532284,0.0725436330217197,0.0085463797410063,55.0,61.0,0.0
0.0923700951821529,0.0722885569778045,0.00853223448396,56.0,60.0,0.0
0.0929746324572371,0.0727647296629276,0.0086442822805583,55.0,59.0,0.0
0.0933767090299705,0.0733652972896102,0.0087192097892677,55.0,60.0,0.0
0.0933655250303456,0.0733712087724685,0.008717121264192,55.0,60.0,0.0
0.0932118565544384,0.0729878014313901,0.0086884502023252,56.0,59.0,0.0
0.0935360587731757,0.0736825487592348,0.0087489942908189,55.0,59.0,0.0
0.0942352641504871,0.0745556778383379,0.008880285009512,55.0,59.0,0.0
0.0936004970971453,0.0740266328119898,0.0087610530568327,55.0,60.0,0.0
0.0928718779235462,0.0736126371277655,0.008625185709046,56.0,60.0,0.0
0.0923080902945927,0.0729258380858052,0.0085207835338346,56.0,62.0,0.0
0.0922234042591863,0.0729111534283872,0.0085051562931533,55.0,60.0,0.0
0.0920558605995349,0.0727624112432207,0.008474281470721,56.0,60.0,0.0
0.0930174596131031,0.0732427749155696,0.0086522477928752,56.0,59.0,0.0
0.0942012353170567,0.0744017690242119,0.0088738727352595,53.0,59.0,0.0
0.0944041888865137,0.0747752987351533,0.0089121508793205,53.0,60.0,0.0
0.0938449863529433,0.0740458708625202,0.0088068814635841,53.0,59.0,0.0
0.0935235655671214,0.0737574094633709,0.0087466573163876,53.0,59.0,0.0
0.0939890710498064,0.0743755560981088,0.0088339454768055,53.0,61.0,0.0
0.0936705184751057,0.0740696230159336,0.0087741660313951,53.0,60.0,0.0
0.0935043401476541,0.073956951219009,0.0087430616264482,54.0,60.0,0.0
0.093211534269624,0.0735365545518574,0.0086883901208973,54.0,60.0,0.0
0.0930481696678628,0.0733939130685683,0.0086579618785393,53.0,60.0,0.0
0.0929419797649933,0.0729254005307165,0.0086382116026364,54.0,57.0,0.0
0.0932148785429192,0.0734321159363955,0.0086890135817711,53.0,59.0,0.0
0.0937636731190087,0.074149927162429,0.0087916263967683,53.0,59.0,0.0
0.0936494853015443,0.0741830401789048,0.0087702260972441,53.0,60.0,0.0
0.0933541538553369,0.0737897844812025,0.0087149980420459,54.0,60.0,0.0
0.0930098234995431,0.0731665782931346,0.0086508272674161,55.0,60.0,0.0
0.0929240411532072,0.0731215309950019,0.0086348774242429,54.0,61.0,0.0
0.0928830796519368,0.0729344177274924,0.008627266485628,54.0,59.0,0.0
0.0935291587149201,0.0734278802137508,0.0087477035299207,55.0,59.0,0.0
0.0939788219623194,0.0740578154520723,0.0088320189774253,55.0,60.0,0.0
0.0939801421994991,0.0741091779242376,0.008832267127838,55.0,60.0,0.0
0.0938108985692137,0.0737047117167643,0.0088004846903633,56.0,59.0,0.0
0.0940096354849875,0.0743141922773128,0.0088378115640202,53.0,59.0,0.0
0.094548503275173,0.0750917152867939,0.0089394194715754,53.0,59.0,0.0
0.0938012588622367,0.0745168520624268,0.0087986761641403,55.0,60.0,0.0
0.0930773826784033,0.0740719847983728,0.0086633991662619,56.0,60.0,0.0
0.0924744593352361,0.0733197421752686,0.0085515256293442,56.0,64.0,0.0
0.0923473129867057,0.0732386710074004,0.0085280262158645,55.0,62.0,0.0
0.092202358568841,0.0731498573633907,0.0085012749256571,56.0,59.0,0.0
0.0932648034775013,0.0737908396344337,0.0086983235676969,55.0,59.0,0.0
0.0945649621797225,0.0749756244710075,0.0089425320720523,53.0,59.0,0.0
0.0947106288523555,0.0752433800188129,0.0089701032176086,53.0,60.0,0.0
0.0939099135450048,0.0743966118300077,0.0088190718620302,53.0,60.0,0.0
0.0933663201112316,0.0737824721892021,0.0087172697311129,53.0,61.0,0.0
0.0937655599539034,0.074385544004428,0.008791980233469,53.0,61.0,0.0
0.0934386060303582,0.0740154117858686,0.0087307730968965,53.0,60.0,0.0
0.093349263098196,0.0740390620368322,0.0087140849209762,56.0,62.0,0.0
0.0930934483014123,0.0736106527844991,0.0086663901166477,56.0,62.0,0.0
0.0929540166784348,0.0735600548835498,0.0086404492166547,55.0,62.0,0.0
0.0928276795810242,0.0730879550254532,0.0086169780963973,56.0,59.0,0.0
0.0931178277471343,0.073620268216767,0.0086709298443449,55.0,59.0,0.0
0.0936702283213927,0.074326176949196,0.0087741116737818,55.0,61.0,0.0
0.0934654644014492,0.074302107276273,0.0087357930357785,55.0,62.0,0.0
0.0930529204814973,0.0737678555296322,0.0086588460101358,56.0,62.0,0.0
0.0925761487583483,0.073016305572917,0.0085703433189278,57.0,62.0,0.0
0.0924265367658244,0.0728614573705775,0.0085426646985242,56.0,63.0,0.0
0.0924029042035161,0.0727407716516825,0.0085382967052441,56.0,62.0,0.0
0.0930100225365004,0.0732030640921538,0.0086508642922403,55.0,61.0,0.0
0.0934436372628141,0.0738152082765544,0.0087317133449043,55.0,62.0,0.0
0.0934438003171304,0.0738651277424364,0.0087317438177077,55.0,62.0,0.0
0.0932774518401061,0.0734776072308226,0.0087006830217833,56.0,61.0,0.0
0.0934310181375062,0.0739560415071866,0.008729355150211,55.0,61.0,0.0
0.0939434842729869,0.0747322003069835,0.0088253782373489,55.0,63.0,0.0
0.093348047146695,0.0741884733473297,0.0087138579061016,55.0,62.0,0.0
0.0928320687408291,0.0738270684118987,0.008617792986702,56.0,62.0,0.0
0.0924759956871048,0.0732709323158092,0.0085518097783214,54.0,62.0,0.0
0.0924018131604185,0.0733061978260797,0.0085380950753328,53.0,62.0,0.0
0.0922739504877529,0.0731659408577803,0.0085144819386162,56.0,61.0,0.0
0.0933156177007987,0.073928111631849,0.0087078045068816,55.0,61.0,0.0
0.0945546656351965,0.0750715569553733,0.0089405847933838,55.0,61.0,0.0
0.0945432332943606,0.0751595275989877,0.0089384229617519,55.0,62.0,0.0
0.0935864600885611,0.0742533688642308,0.0087584255119078,53.0,62.0,0.0
0.092882575568584,0.0735791271409136,0.0086271728442537,54.0,61.0,0.0
0.0932650535752978,0.0741729311888175,0.0086983702184031,53.0,61.0,0.0
0.092993133901268,0.0738078564695415,0.0086477229527791,53.0,62.0,0.0
0.0929851942465872,0.0738570465258895,0.0086462463490755,56.0,62.0,0.0
0.0928236321879668,0.0735697973955462,0.0086162266925669,56.0,62.0,0.0
0.0927627265100593,0.0735201014937579,0.00860492342958,55.0,62.0,0.0
0.0926268846352923,0.0731021725168259,0.0085797397572397,56.0,61.0,0.0
0.0928449509557153,0.0735355764118808,0.0086201849179691,55.0,61.0,0.0
0.0933851329431104,0.0742560827470782,0.0087207830548024,55.0,61.0,0.0
0.09314179489012,0.0741561972311609,0.0086753939553531,53.0,62.0,0.0
0.0926562174098118,0.0734829968815708,0.0085851746246943,52.0,62.0,0.0
0.0920367896065563,0.0729443411203967,0.0084707706410815,53.0,63.0,0.0
0.0917196600206236,0.0723378143026527,0.0084124960342987,52.0,61.0,0.0
0.0917684528049978,0.0724673370269566,0.0084214489302231,52.0,61.0,0.0
0.0923730890833404,0.0732081077278828,0.0085327875867987,51.0,61.0,0.0
0.0927022318970715,0.0737288405211592,0.0085937037986984,51.0,62.0,0.0
0.0925987202612214,0.0735484734355315,0.0085745229940159,51.0,62.0,0.0
0.0922947410153622,0.0731030752762402,0.0085183192190927,52.0,61.0,0.0
0.0922692265518429,0.0731951598526099,0.0085136101684753,51.0,61.0,0.0
0.0927597650129618,0.0739564741233642,0.0086043740052598,49.0,61.0,0.0
0.0923175654404536,0.0734782448941311,0.0085225328888524,49.0,62.0,0.0
0.0920588192052507,0.0732153883684662,0.008474826193465,52.0,62.0,0.0
0.0919029654818993,0.0729408544023085,0.0084461550643671,52.0,62.0,0.0
0.0918932510321562,0.0730335832759331,0.0084443695852588,51.0,62.0,0.0
0.0916841189495645,0.072874714466743,0.0084059776675578,52.0,61.0,0.0
0.0928037463466339,0.0734918358323561,0.0086125353359703,51.0,61.0,0.0
0.0941822942438187,0.0747452097756005,0.0088703045490292,49.0,61.0,0.0
0.0942929028589208,0.0749997861891996,0.0088911515295618,49.0,62.0,0.0
0.0935918540730858,0.0743326700475097,0.0087594351488378,49.0,62.0,0.0
0.09306116875965,0.0739046493527537,0.008660381130912,49.0,61.0,0.0
0.0935480434996084,0.0745459994686968,0.0087512364426046,49.0,61.0,0.0
0.0932069999322431,0.0741851398681358,0.0086875448363691,49.0,62.0,0.0
0.0929307577966118,0.0738371887394632,0.0086361257446525,52.0,62.0,0.0
0.0926611508126824,0.0733799485419825,0.0085860888699306,52.0,62.0,0.0
0.0925551434397866,0.0732604382158271,0.0085664545771594,53.0,62.0,0.0
0.0924612404296377,0.0729522882740877,0.0085490809817872,52.0,61.0,0.0
0.0927582255279778,0.0734474635060897,0.0086040884030991,53.0,61.0,0.0
0.0931554802452587,0.0740722283425207,0.0086779434997247,53.0,61.0,0.0
0.0929173530367214,0.0739905506858248,0.0086336344953507,51.0,62.0,0.0
0.0925583259553991,0.0734263090495751,0.0085670437036659,52.0,62.0,0.0
0.0921101288927436,0.072933214223627,0.0084842758446378,52.0,61.0,0.0
0.0919343302243415,0.0727220199440138,0.0084519210737982,51.0,59.0,0.0
0.0919302893190409,0.0726338643029423,0.0084511780942825,52.0,59.0,0.0
0.0925791345668285,0.0734100743243134,0.0085708961571429,49.0,59.0,0.0
0.0928042331513871,0.0738699008181181,0.008612625690817,49.0,60.0,0.0
0.092695879949978,0.0736971060315784,0.0085925261597007,49.0,60.0,0.0
0.0924118757474959,0.0732567172477555,0.0085399547791706,50.0,59.0,0.0
0.0928356430115346,0.0738213339560834,0.0086184566133651,49.0,59.0,0.0
0.0938679152188159,0.0748891219558237,0.0088111855075268,49.0,61.0,0.0
0.093456882974072,0.074473206865942,0.0087341889752293,49.0,60.0,0.0
0.0930236286966912,0.0741166560081687,0.0086533954958998,50.0,60.0,0.0
0.0928032247386807,0.0737526953470015,0.008612438521898,50.0,59.0,0.0
0.0928934302179109,0.0740884949747268,0.0086291893776498,49.0,59.0,0.0
0.0926424138766877,0.0736485113174694,0.0085826168488995,50.0,59.0,0.0
0.0932873383258526,0.0740913096836431,0.008702527491922,51.0,59.0,0.0
0.0940170060931898,0.0749533292693192,0.0088391974347268,51.0,60.0,0.0
0.0939039955115043,0.0749431712895288,0.0088179603730246,49.0,60.0,0.0
0.0931537402311016,0.0741321035832472,0.0086776193190435,49.0,60.0,0.0
0.0926752003054986,0.0738009459175566,0.0085886927516643,49.0,59.0,0.0
0.0932887800220453,0.074559240563419,0.0087027964780015,49.0,59.0,0.0
0.0930258781377764,0.0743348730981992,0.0086538140033044,49.0,60.0,0.0
0.092753397586516,0.0739189453909408,0.0086031927638423,52.0,60.0,0.0
0.0925295360024705,0.0735030624684294,0.0085617150328324,52.0,60.0,0.0
0.0924469616782386,0.0734248167823976,0.0085464407235377,51.0,60.0,0.0
0.0923077115384635,0.0729788564791045,0.0085207136094681,52.0,59.0,0.0
0.0924944555134728,0.0733570695263035,0.0085552243007338,51.0,59.0,0.0
0.0928208446090864,0.0739359055685141,0.0086157091939441,51.0,59.0,0.0
0.0925312662806334,0.0738192788415656,0.0085620352394974,49.0,60.0,0.0
0.0921352270876325,0.0732760324127655,0.0084889000704896,50.0,60.0,0.0
0.0916138755058404,0.0727885375209465,0.0083931021851996,50.0,60.0,0.0
0.0913340204355147,0.0724289024727761,0.008341903288915,49.0,59.0,0.0
0.0913309756965779,0.0723360394013896,0.0083413471216889,50.0,59.0,0.0
0.091773235344896,0.072982708105468,0.0084223267256696,49.0,59.0,0.0
0.0918327139736673,0.0733248432259841,0.0084332473557693,49.0,60.0,0.0
0.0916721233303087,0.0730912252086712,0.0084037781958873,49.0,60.0,0.0
0.0913912157051472,0.0726737460822529,0.0083523543080647,50.0,59.0,0.0
0.0917633655785103,0.0733208955919678,0.0084205152622953,49.0,59.0,0.0
0.092592880379322,0.074235270370891,0.0085734414969394,49.0,61.0,0.0
0.0919706985345322,0.0736410261766187,0.0084586093889298,49.0,60.0,0.0
0.091389000495476,0.073208086080902,0.0083519494115621,50.0,60.0,0.0
0.0910144654882001,0.0726743559200737,0.0082836329281027,50.0,59.0,0.0
0.0909874734038551,0.072864114001552,0.0082787203164172,49.0,60.0,0.0
0.090751195612108,0.0725171599491579,0.008235779505027,50.0,59.0,0.0
0.0915924832553046,0.0730881427293723,0.0083891829888732,49.0,59.0,0.0
0.0925460511773517,0.074041852294898,0.008564771588521,49.0,59.0,0.0
0.0924527280996776,0.0740744079939302,0.0085475069330729,49.0,60.0,0.0
0.0916267475877525,0.0732772413388581,0.0083954608735097,49.0,60.0,0.0
0.09107606993853,0.0728588150092125,0.008294850515448,49.0,59.0,0.0
0.0916468865088917,0.073584383355172,0.0083991518067736,49.0,59.0,0.0
0.0913135791595585,0.0732027627609201,0.0083381697389289,49.0,60.0,0.0
0.0910091702990045,0.0728923224675029,0.0082826690785132,50.0,60.0,0.0
0.0907291632682049,0.0722919383220998,0.0082317810673485,50.0,60.0,0.0
0.0906315831726374,0.0721584520764323,0.0082140838683786,50.0,60.0,0.0
0.090501219406342,0.071763276490748,0.0081904707140348,50.0,59.0,0.0
0.0907005757636237,0.0722346930547424,0.0082265944438528,49.0,59.0,0.0
0.0911214191917934,0.0728298337732526,0.0083031130355265,49.0,59.0,0.0
0.0908930858935062,0.072784029339103,0.0082615530632443,49.0,60.0,0.0
0.0904607795198154,0.072127720852326,0.0081831526313326,50.0,60.0,0.0
0.0899341863855125,0.071322034999518,0.0080881578808241,51.0,60.0,0.0
0.0897462061428699,0.0711059605106027,0.0080543815170385,53.0,61.0,0.0
0.0897007916142379,0.0708122349298454,0.0080462320162209,54.0,59.0,0.0
0.090140686872384,0.0714506944975338,0.0081253434298251,53.0,61.0,0.0
0.0903288587836243,0.0718594069377154,0.0081593027291519,53.0,60.0,0.0
0.0902464645359109,0.0717267785917168,0.0081444243612314,53.0,60.0,0.0
0.0899300153397821,0.0713372868981224,0.0080874076590134,54.0,59.0,0.0
0.0901875920340508,0.071707341113777,0.0081338017569003,53.0,59.0,0.0
0.0910661653796794,0.072658808149017,0.0082930464769591,53.0,59.0,0.0
0.0906691971364042,0.0722335256671825,0.0082209033093601,53.0,60.0,0.0
0.0903281798505847,0.0719047187625194,0.0081591800751195,54.0,60.0,0.0
0.0902097926250979,0.0715747054529971,0.0081378066854631,54.0,59.0,0.0
0.090247632340381,0.0718789891883061,0.0081446351430445,53.0,60.0,0.0
0.0900133804839996,0.071502280094166,0.0081024086661572,54.0,59.0,0.0
0.0908938533290616,0.0722448342863213,0.0082616925730049,51.0,59.0,0.0
0.0919353038263733,0.0732053482662916,0.0084521000896475,53.0,59.0,0.0
0.0917265258586545,0.0730680091459684,0.0084137555460984,51.0,60.0,0.0
0.090782827594911,0.0722674083458568,0.0082415217861273,49.0,60.0,0.0
0.0900386562118635,0.0717266902188542,0.0081069596124381,52.0,59.0,0.0
0.0905256859982004,0.0723817129026822,0.0081948998254447,51.0,59.0,0.0
0.0902523709365921,0.0720556865568245,0.0081454904596762,51.0,60.0,0.0
0.0900432065427192,0.0717785628249815,0.0081077790444947,54.0,60.0,0.0
0.0898757881254659,0.0713854871668338,0.0080776572911736,52.0,60.0,0.0
0.0898396400621036,0.0714397039568057,0.0080711609264883,51.0,60.0,0.0
0.0896427162194284,0.0708580716404776,0.0080358165711969,52.0,59.0,0.0
0.0897459360864086,0.0711486900708577,0.0080543330440257,53.0,59.0,0.0
0.0901935350959507,0.071784444711897,0.0081348737731044,53.0,59.0,0.0
0.0899831296482414,0.0717425039529836,0.0080969636212922,51.0,58.0,0.0
0.0896048645359272,0.07106379803869,0.0080290317485018,52.0,60.0,0.0
0.0890951978575191,0.0705645320086034,0.0079379542812704,53.0,60.0,0.0
0.0887574863435629,0.0699375723916496,0.0078778913820277,53.0,59.0,0.0
0.0887902645534361,0.0699949275173224,0.0078837110794691,54.0,59.0,0.0
0.0894228809873773,0.0707676135494589,0.0079964516440826,53.0,59.0,0.0
0.0896085220352805,0.0711980780289666,0.0080296872213473,53.0,60.0,0.0
0.0894360578981382,0.0709585942873886,0.0079988084523591,55.0,60.0,0.0
0.0891470035259782,0.0706356919967535,0.0079471882376607,56.0,59.0,0.0
0.0894503802512751,0.0710171900155866,0.0080013705270977,55.0,59.0,0.0
0.090456653574761,0.072030326583902,0.0081824061759443,55.0,59.0,0.0
0.0901595722571386,0.0716555961905686,0.0081287484695901,55.0,60.0,0.0
0.0898989439297654,0.0713534202097138,0.0080818201196871,56.0,60.0,0.0
0.0898570189166276,0.0711453619899605,0.0080742838485831,56.0,60.0,0.0
0.089910236275631,0.0714276869087411,0.0080838505871398,55.0,60.0,0.0
0.0896918495424008,0.0710617206624928,0.0080446278743366,56.0,59.0,0.0
0.0906119820925958,0.0718742356871143,0.0082105312987489,53.0,59.0,0.0
0.0916725272605903,0.0728598548216323,0.0084038522543436,53.0,59.0,0.0
0.091385899020928,0.0727005176079995,0.0083513825398632,51.0,60.0,0.0
0.0903981081329939,0.0718069818566747,0.0081718179540244,51.0,60.0,0.0
0.089673293497375,0.0712725095793443,0.0080412995666663,50.0,59.0,0.0
0.0901623794367904,0.0719330021633394,0.0081292546657037,53.0,59.0,0.0
0.0898926912735189,0.0715641260205337,0.0080806959443961,53.0,60.0,0.0
0.0896859697055248,0.0713564807208841,0.0080435731620203,56.0,60.0,0.0
0.089570801119958,0.0709809252065238,0.008022928413271,54.0,60.0,0.0
0.0895679311851991,0.0711264800746919,0.0080224142967965,53.0,60.0,0.0
0.0893313996663674,0.0704882861551987,0.0079800989663522,54.0,59.0,0.0
0.089440671561696,0.0708224359341652,0.0079996337294071,55.0,59.0,0.0
0.0898907348214301,0.071465080764798,0.0080803442067366,55.0,59.0,0.0
0.0896166297637457,0.0713540709126456,0.0080311403302122,53.0,60.0,0.0
0.0891909496022319,0.070605001889798,0.0079550254909478,54.0,60.0,0.0
0.0886205688214751,0.0700050597590324,0.0078536052182418,55.0,60.0,0.0
0.0882709437229794,0.0694049459344251,0.0077917595057454,55.0,59.0,0.0
0.0882849307619985,0.069405614110654,0.0077942289996508,56.0,59.0,0.0
0.0888620092468891,0.0701494203917947,0.0078964566873942,55.0,59.0,0.0
0.0890388764948757,0.070568433395838,0.0079279215274697,55.0,60.0,0.0
0.0888781451086219,0.0703454539391711,0.0078993246779492,55.0,60.0,0.0
0.0885889400669984,0.0700049447567292,0.0078480003021942,56.0,59.0,0.0
